#energy geo_1 
600 3.23082e-06 
600.439 3.23186e-06 
600.879 3.23291e-06 
601.318 3.23397e-06 
601.758 3.23503e-06 
602.197 3.23609e-06 
602.637 3.23716e-06 
603.076 3.23823e-06 
603.516 3.2393e-06 
603.955 3.24037e-06 
604.395 3.24144e-06 
604.834 3.2425e-06 
605.273 3.24356e-06 
605.713 3.24461e-06 
606.152 3.24565e-06 
606.592 3.24668e-06 
607.031 3.2477e-06 
607.471 3.2487e-06 
607.91 3.2497e-06 
608.35 3.25068e-06 
608.789 3.25165e-06 
609.229 3.25261e-06 
609.668 3.25356e-06 
610.107 3.25449e-06 
610.547 3.25542e-06 
610.986 3.25633e-06 
611.426 3.25723e-06 
611.865 3.25813e-06 
612.305 3.25902e-06 
612.744 3.2599e-06 
613.184 3.26078e-06 
613.623 3.26166e-06 
614.062 3.26254e-06 
614.502 3.26342e-06 
614.941 3.2643e-06 
615.381 3.26518e-06 
615.82 3.26606e-06 
616.26 3.26694e-06 
616.699 3.26783e-06 
617.139 3.26872e-06 
617.578 3.26961e-06 
618.018 3.27051e-06 
618.457 3.27142e-06 
618.896 3.27234e-06 
619.336 3.27328e-06 
619.775 3.27424e-06 
620.215 3.27521e-06 
620.654 3.27619e-06 
621.094 3.2772e-06 
621.533 3.27823e-06 
621.973 3.27928e-06 
622.412 3.28034e-06 
622.852 3.28143e-06 
623.291 3.28253e-06 
623.73 3.28365e-06 
624.17 3.28479e-06 
624.609 3.28594e-06 
625.049 3.28712e-06 
625.488 3.28831e-06 
625.928 3.28951e-06 
626.367 3.29072e-06 
626.807 3.29195e-06 
627.246 3.29317e-06 
627.686 3.29441e-06 
628.125 3.29566e-06 
628.564 3.29692e-06 
629.004 3.29822e-06 
629.443 3.29957e-06 
629.883 3.30096e-06 
630.322 3.30242e-06 
630.762 3.30396e-06 
631.201 3.30558e-06 
631.641 3.30727e-06 
632.08 3.30903e-06 
632.52 3.31081e-06 
632.959 3.31253e-06 
633.398 3.3141e-06 
633.838 3.31541e-06 
634.277 3.3164e-06 
634.717 3.31709e-06 
635.156 3.31755e-06 
635.596 3.31788e-06 
636.035 3.31819e-06 
636.475 3.31853e-06 
636.914 3.31893e-06 
637.354 3.31942e-06 
637.793 3.31998e-06 
638.232 3.3206e-06 
638.672 3.32129e-06 
639.111 3.32202e-06 
639.551 3.32279e-06 
639.99 3.32359e-06 
640.43 3.32442e-06 
640.869 3.32527e-06 
641.309 3.32613e-06 
641.748 3.32702e-06 
642.188 3.32791e-06 
642.627 3.32882e-06 
643.066 3.32974e-06 
643.506 3.33068e-06 
643.945 3.33162e-06 
644.385 3.33258e-06 
644.824 3.33355e-06 
645.264 3.33452e-06 
645.703 3.3355e-06 
646.143 3.3365e-06 
646.582 3.3375e-06 
647.021 3.33851e-06 
647.461 3.33954e-06 
647.9 3.34058e-06 
648.34 3.34163e-06 
648.779 3.34269e-06 
649.219 3.34376e-06 
649.658 3.34485e-06 
650.098 3.34596e-06 
650.537 3.34708e-06 
650.977 3.34822e-06 
651.416 3.34936e-06 
651.855 3.35052e-06 
652.295 3.35169e-06 
652.734 3.35287e-06 
653.174 3.35406e-06 
653.613 3.35528e-06 
654.053 3.35651e-06 
654.492 3.35778e-06 
654.932 3.35908e-06 
655.371 3.36043e-06 
655.811 3.36181e-06 
656.25 3.36325e-06 
656.689 3.36473e-06 
657.129 3.36625e-06 
657.568 3.3678e-06 
658.008 3.36935e-06 
658.447 3.37086e-06 
658.887 3.37229e-06 
659.326 3.37363e-06 
659.766 3.3749e-06 
660.205 3.37614e-06 
660.645 3.3774e-06 
661.084 3.37871e-06 
661.523 3.38008e-06 
661.963 3.38146e-06 
662.402 3.38279e-06 
662.842 3.38399e-06 
663.281 3.38502e-06 
663.721 3.38588e-06 
664.16 3.38663e-06 
664.6 3.38733e-06 
665.039 3.38804e-06 
665.479 3.38881e-06 
665.918 3.38965e-06 
666.357 3.39057e-06 
666.797 3.39156e-06 
667.236 3.39262e-06 
667.676 3.39372e-06 
668.115 3.39485e-06 
668.555 3.39602e-06 
668.994 3.3972e-06 
669.434 3.39839e-06 
669.873 3.39959e-06 
670.312 3.40078e-06 
670.752 3.40197e-06 
671.191 3.40314e-06 
671.631 3.4043e-06 
672.07 3.40544e-06 
672.51 3.40657e-06 
672.949 3.40767e-06 
673.389 3.40875e-06 
673.828 3.40979e-06 
674.268 3.41081e-06 
674.707 3.4118e-06 
675.146 3.41277e-06 
675.586 3.4137e-06 
676.025 3.41461e-06 
676.465 3.4155e-06 
676.904 3.41637e-06 
677.344 3.41722e-06 
677.783 3.41806e-06 
678.223 3.41888e-06 
678.662 3.41969e-06 
679.102 3.4205e-06 
679.541 3.4213e-06 
679.98 3.4221e-06 
680.42 3.4229e-06 
680.859 3.4237e-06 
681.299 3.42452e-06 
681.738 3.42535e-06 
682.178 3.42622e-06 
682.617 3.42711e-06 
683.057 3.42804e-06 
683.496 3.42901e-06 
683.936 3.43002e-06 
684.375 3.43107e-06 
684.814 3.43216e-06 
685.254 3.43329e-06 
685.693 3.43448e-06 
686.133 3.43572e-06 
686.572 3.43704e-06 
687.012 3.43844e-06 
687.451 3.43994e-06 
687.891 3.44154e-06 
688.33 3.44322e-06 
688.77 3.44499e-06 
689.209 3.44682e-06 
689.648 3.44868e-06 
690.088 3.45059e-06 
690.527 3.45254e-06 
690.967 3.45454e-06 
691.406 3.45661e-06 
691.846 3.45879e-06 
692.285 3.46109e-06 
692.725 3.46352e-06 
693.164 3.46607e-06 
693.604 3.46873e-06 
694.043 3.47148e-06 
694.482 3.47429e-06 
694.922 3.47712e-06 
695.361 3.47993e-06 
695.801 3.48262e-06 
696.24 3.4851e-06 
696.68 3.48728e-06 
697.119 3.48913e-06 
697.559 3.49064e-06 
697.998 3.49188e-06 
698.438 3.49294e-06 
698.877 3.49388e-06 
699.316 3.49473e-06 
699.756 3.49547e-06 
700.195 3.49605e-06 
700.635 3.49637e-06 
701.074 3.49642e-06 
701.514 3.49615e-06 
701.953 3.4956e-06 
702.393 3.49483e-06 
702.832 3.49393e-06 
703.271 3.493e-06 
703.711 3.49215e-06 
704.15 3.49147e-06 
704.59 3.49101e-06 
705.029 3.49077e-06 
705.469 3.49066e-06 
705.908 3.49055e-06 
706.348 3.49032e-06 
706.787 3.48987e-06 
707.227 3.48916e-06 
707.666 3.48827e-06 
708.105 3.4873e-06 
708.545 3.48641e-06 
708.984 3.4857e-06 
709.424 3.48516e-06 
709.863 3.48483e-06 
710.303 3.48475e-06 
710.742 3.48503e-06 
711.182 3.48572e-06 
711.621 3.48681e-06 
712.061 3.48824e-06 
712.5 3.48992e-06 
712.939 3.49178e-06 
713.379 3.49376e-06 
713.818 3.49579e-06 
714.258 3.49786e-06 
714.697 3.50001e-06 
715.137 3.50234e-06 
715.576 3.50507e-06 
716.016 3.50849e-06 
716.455 3.51276e-06 
716.895 3.51762e-06 
717.334 3.52212e-06 
717.773 3.52516e-06 
718.213 3.52602e-06 
718.652 3.5254e-06 
719.092 3.5245e-06 
719.531 3.52402e-06 
719.971 3.52432e-06 
720.41 3.52575e-06 
720.85 3.52844e-06 
721.289 3.53256e-06 
721.729 3.53856e-06 
722.168 3.54745e-06 
722.607 3.56146e-06 
723.047 3.58574e-06 
723.486 3.63256e-06 
723.926 3.72564e-06 
724.365 3.83653e-06 
724.805 3.79252e-06 
725.244 3.68012e-06 
725.684 3.60901e-06 
726.123 3.57406e-06 
726.562 3.55647e-06 
727.002 3.54701e-06 
727.441 3.54168e-06 
727.881 3.53865e-06 
728.32 3.53697e-06 
728.76 3.53614e-06 
729.199 3.53588e-06 
729.639 3.53601e-06 
730.078 3.53641e-06 
730.518 3.53702e-06 
730.957 3.53777e-06 
731.396 3.53864e-06 
731.836 3.5396e-06 
732.275 3.54063e-06 
732.715 3.54173e-06 
733.154 3.54287e-06 
733.594 3.54407e-06 
734.033 3.54531e-06 
734.473 3.54658e-06 
734.912 3.5479e-06 
735.352 3.54925e-06 
735.791 3.55063e-06 
736.23 3.55205e-06 
736.67 3.55349e-06 
737.109 3.55497e-06 
737.549 3.55646e-06 
737.988 3.55799e-06 
738.428 3.55954e-06 
738.867 3.56111e-06 
739.307 3.5627e-06 
739.746 3.56431e-06 
740.186 3.56594e-06 
740.625 3.56758e-06 
741.064 3.56924e-06 
741.504 3.57091e-06 
741.943 3.57259e-06 
742.383 3.57427e-06 
742.822 3.57596e-06 
743.262 3.57766e-06 
743.701 3.57939e-06 
744.141 3.58116e-06 
744.58 3.58298e-06 
745.02 3.58487e-06 
745.459 3.58685e-06 
745.898 3.58891e-06 
746.338 3.59107e-06 
746.777 3.59332e-06 
747.217 3.59564e-06 
747.656 3.59796e-06 
748.096 3.60019e-06 
748.535 3.6022e-06 
748.975 3.6039e-06 
749.414 3.60524e-06 
749.854 3.60626e-06 
750.293 3.60707e-06 
750.732 3.60779e-06 
751.172 3.60851e-06 
751.611 3.60929e-06 
752.051 3.61017e-06 
752.49 3.61116e-06 
752.93 3.61224e-06 
753.369 3.6134e-06 
753.809 3.61465e-06 
754.248 3.61595e-06 
754.688 3.61731e-06 
755.127 3.61871e-06 
755.566 3.62015e-06 
756.006 3.62162e-06 
756.445 3.62312e-06 
756.885 3.62464e-06 
757.324 3.62618e-06 
757.764 3.62774e-06 
758.203 3.62932e-06 
758.643 3.63091e-06 
759.082 3.63251e-06 
759.521 3.63413e-06 
759.961 3.63575e-06 
760.4 3.63739e-06 
760.84 3.63903e-06 
761.279 3.64069e-06 
761.719 3.64235e-06 
762.158 3.64402e-06 
762.598 3.6457e-06 
763.037 3.64739e-06 
763.477 3.64908e-06 
763.916 3.65078e-06 
764.355 3.65249e-06 
764.795 3.6542e-06 
765.234 3.65592e-06 
765.674 3.65763e-06 
766.113 3.65935e-06 
766.553 3.66108e-06 
766.992 3.66281e-06 
767.432 3.66454e-06 
767.871 3.66626e-06 
768.311 3.668e-06 
768.75 3.66973e-06 
769.189 3.67146e-06 
769.629 3.67319e-06 
770.068 3.67493e-06 
770.508 3.67666e-06 
770.947 3.67839e-06 
771.387 3.68012e-06 
771.826 3.68185e-06 
772.266 3.68357e-06 
772.705 3.68529e-06 
773.145 3.68701e-06 
773.584 3.68872e-06 
774.023 3.69042e-06 
774.463 3.69211e-06 
774.902 3.6938e-06 
775.342 3.69549e-06 
775.781 3.69717e-06 
776.221 3.69884e-06 
776.66 3.70051e-06 
777.1 3.70217e-06 
777.539 3.70383e-06 
777.979 3.7055e-06 
778.418 3.70716e-06 
778.857 3.70882e-06 
779.297 3.71049e-06 
779.736 3.71217e-06 
780.176 3.71384e-06 
780.615 3.71553e-06 
781.055 3.71721e-06 
781.494 3.71891e-06 
781.934 3.72062e-06 
782.373 3.72233e-06 
782.812 3.72406e-06 
783.252 3.7258e-06 
783.691 3.72755e-06 
784.131 3.72932e-06 
784.57 3.73111e-06 
785.01 3.73292e-06 
785.449 3.73474e-06 
785.889 3.73659e-06 
786.328 3.73845e-06 
786.768 3.74033e-06 
787.207 3.74222e-06 
787.646 3.74413e-06 
788.086 3.74604e-06 
788.525 3.74796e-06 
788.965 3.74989e-06 
789.404 3.75182e-06 
789.844 3.75376e-06 
790.283 3.75569e-06 
790.723 3.75764e-06 
791.162 3.75959e-06 
791.602 3.76154e-06 
792.041 3.7635e-06 
792.48 3.76545e-06 
792.92 3.7674e-06 
793.359 3.76935e-06 
793.799 3.77129e-06 
794.238 3.77322e-06 
794.678 3.77514e-06 
795.117 3.77705e-06 
795.557 3.77896e-06 
795.996 3.78087e-06 
796.436 3.78278e-06 
796.875 3.78469e-06 
797.314 3.78659e-06 
797.754 3.7885e-06 
798.193 3.79039e-06 
798.633 3.79225e-06 
799.072 3.79409e-06 
799.512 3.79588e-06 
799.951 3.79762e-06 
800.391 3.7993e-06 
800.83 3.80091e-06 
801.27 3.80245e-06 
801.709 3.80392e-06 
802.148 3.80532e-06 
802.588 3.80666e-06 
803.027 3.80794e-06 
803.467 3.80916e-06 
803.906 3.81032e-06 
804.346 3.81143e-06 
804.785 3.81248e-06 
805.225 3.8135e-06 
805.664 3.8145e-06 
806.104 3.81552e-06 
806.543 3.81657e-06 
806.982 3.8177e-06 
807.422 3.81891e-06 
807.861 3.8202e-06 
808.301 3.82156e-06 
808.74 3.823e-06 
809.18 3.82449e-06 
809.619 3.82603e-06 
810.059 3.82764e-06 
810.498 3.82933e-06 
810.938 3.83116e-06 
811.377 3.83315e-06 
811.816 3.83534e-06 
812.256 3.83775e-06 
812.695 3.84038e-06 
813.135 3.84323e-06 
813.574 3.84629e-06 
814.014 3.84953e-06 
814.453 3.8529e-06 
814.893 3.85633e-06 
815.332 3.85969e-06 
815.771 3.86285e-06 
816.211 3.8657e-06 
816.65 3.8682e-06 
817.09 3.87039e-06 
817.529 3.87236e-06 
817.969 3.87423e-06 
818.408 3.8761e-06 
818.848 3.87797e-06 
819.287 3.87981e-06 
819.727 3.8815e-06 
820.166 3.88293e-06 
820.605 3.88405e-06 
821.045 3.8848e-06 
821.484 3.88522e-06 
821.924 3.88538e-06 
822.363 3.88542e-06 
822.803 3.88551e-06 
823.242 3.88587e-06 
823.682 3.88667e-06 
824.121 3.88809e-06 
824.561 3.89018e-06 
825 3.89293e-06 
825.439 3.89622e-06 
825.879 3.89998e-06 
826.318 3.90414e-06 
826.758 3.90863e-06 
827.197 3.91336e-06 
827.637 3.91804e-06 
828.076 3.92209e-06 
828.516 3.92465e-06 
828.955 3.92484e-06 
829.395 3.92233e-06 
829.834 3.91751e-06 
830.273 3.91138e-06 
830.713 3.90496e-06 
831.152 3.89905e-06 
831.592 3.89404e-06 
832.031 3.89007e-06 
832.471 3.8871e-06 
832.91 3.88497e-06 
833.35 3.88353e-06 
833.789 3.88267e-06 
834.229 3.88238e-06 
834.668 3.8828e-06 
835.107 3.88422e-06 
835.547 3.88699e-06 
835.986 3.89118e-06 
836.426 3.89603e-06 
836.865 3.89999e-06 
837.305 3.90146e-06 
837.744 3.89996e-06 
838.184 3.89693e-06 
838.623 3.89398e-06 
839.062 3.89196e-06 
839.502 3.89143e-06 
839.941 3.89281e-06 
840.381 3.89631e-06 
840.82 3.90228e-06 
841.26 3.91166e-06 
841.699 3.92647e-06 
842.139 3.95124e-06 
842.578 3.99663e-06 
843.018 4.08738e-06 
843.457 4.2536e-06 
843.896 4.36004e-06 
844.336 4.24345e-06 
844.775 4.08536e-06 
845.215 3.99358e-06 
845.654 3.9488e-06 
846.094 3.92601e-06 
846.533 3.91383e-06 
846.973 3.90728e-06 
847.412 3.90408e-06 
847.852 3.90307e-06 
848.291 3.90365e-06 
848.73 3.90546e-06 
849.17 3.9083e-06 
849.609 3.91201e-06 
850.049 3.91641e-06 
850.488 3.92122e-06 
850.928 3.92606e-06 
851.367 3.9304e-06 
851.807 3.93373e-06 
852.246 3.93571e-06 
852.686 3.93634e-06 
853.125 3.93595e-06 
853.564 3.93502e-06 
854.004 3.93404e-06 
854.443 3.93336e-06 
854.883 3.9332e-06 
855.322 3.93367e-06 
855.762 3.93486e-06 
856.201 3.93679e-06 
856.641 3.93947e-06 
857.08 3.94292e-06 
857.52 3.94708e-06 
857.959 3.95185e-06 
858.398 3.95697e-06 
858.838 3.96202e-06 
859.277 3.96641e-06 
859.717 3.96947e-06 
860.156 3.97076e-06 
860.596 3.9702e-06 
861.035 3.96817e-06 
861.475 3.96528e-06 
861.914 3.96213e-06 
862.354 3.95919e-06 
862.793 3.95669e-06 
863.232 3.95473e-06 
863.672 3.95332e-06 
864.111 3.95241e-06 
864.551 3.95193e-06 
864.99 3.95182e-06 
865.43 3.95201e-06 
865.869 3.95245e-06 
866.309 3.95308e-06 
866.748 3.95388e-06 
867.188 3.9548e-06 
867.627 3.95583e-06 
868.066 3.95694e-06 
868.506 3.95813e-06 
868.945 3.95937e-06 
869.385 3.96066e-06 
869.824 3.962e-06 
870.264 3.96338e-06 
870.703 3.96479e-06 
871.143 3.96623e-06 
871.582 3.96769e-06 
872.021 3.96916e-06 
872.461 3.97064e-06 
872.9 3.97214e-06 
873.34 3.97366e-06 
873.779 3.97521e-06 
874.219 3.97678e-06 
874.658 3.97839e-06 
875.098 3.98005e-06 
875.537 3.98175e-06 
875.977 3.9835e-06 
876.416 3.98532e-06 
876.855 3.98721e-06 
877.295 3.98919e-06 
877.734 3.9913e-06 
878.174 3.99358e-06 
878.613 3.99607e-06 
879.053 3.99882e-06 
879.492 4.00188e-06 
879.932 4.00528e-06 
880.371 4.00905e-06 
880.811 4.01318e-06 
881.25 4.01758e-06 
881.689 4.02207e-06 
882.129 4.02636e-06 
882.568 4.0301e-06 
883.008 4.03298e-06 
883.447 4.03487e-06 
883.887 4.03587e-06 
884.326 4.03625e-06 
884.766 4.03637e-06 
885.205 4.03652e-06 
885.645 4.03691e-06 
886.084 4.03763e-06 
886.523 4.03872e-06 
886.963 4.04013e-06 
887.402 4.0418e-06 
887.842 4.04361e-06 
888.281 4.0455e-06 
888.721 4.0474e-06 
889.16 4.04931e-06 
889.6 4.05128e-06 
890.039 4.05342e-06 
890.479 4.05586e-06 
890.918 4.05868e-06 
891.357 4.06193e-06 
891.797 4.06562e-06 
892.236 4.06972e-06 
892.676 4.07417e-06 
893.115 4.07887e-06 
893.555 4.08368e-06 
893.994 4.08839e-06 
894.434 4.09272e-06 
894.873 4.0963e-06 
895.312 4.09882e-06 
895.752 4.10011e-06 
896.191 4.10023e-06 
896.631 4.09942e-06 
897.07 4.09807e-06 
897.51 4.09652e-06 
897.949 4.09495e-06 
898.389 4.09333e-06 
898.828 4.09147e-06 
899.268 4.08908e-06 
899.707 4.08595e-06 
900.146 4.08199e-06 
900.586 4.07723e-06 
901.025 4.07192e-06 
901.465 4.06641e-06 
901.904 4.06116e-06 
902.344 4.05663e-06 
902.783 4.05322e-06 
903.223 4.05115e-06 
903.662 4.05042e-06 
904.102 4.05066e-06 
904.541 4.05128e-06 
904.98 4.0517e-06 
905.42 4.05152e-06 
905.859 4.05067e-06 
906.299 4.04946e-06 
906.738 4.0486e-06 
907.178 4.04899e-06 
907.617 4.05134e-06 
908.057 4.05602e-06 
908.496 4.06327e-06 
908.936 4.07333e-06 
909.375 4.08637e-06 
909.814 4.10204e-06 
910.254 4.11919e-06 
910.693 4.13582e-06 
911.133 4.14952e-06 
911.572 4.15826e-06 
912.012 4.16102e-06 
912.451 4.15816e-06 
912.891 4.15116e-06 
913.33 4.14202e-06 
913.77 4.13281e-06 
914.209 4.12546e-06 
914.648 4.12174e-06 
915.088 4.12258e-06 
915.527 4.12699e-06 
915.967 4.13128e-06 
916.406 4.1306e-06 
916.846 4.12146e-06 
917.285 4.10547e-06 
917.725 4.08722e-06 
918.164 4.07003e-06 
918.604 4.05587e-06 
919.043 4.04648e-06 
919.482 4.04298e-06 
919.922 4.04641e-06 
920.361 4.05875e-06 
920.801 4.08411e-06 
921.24 4.13119e-06 
921.68 4.22021e-06 
922.119 4.39973e-06 
922.559 4.76327e-06 
922.998 5.2126e-06 
923.438 5.14106e-06 
923.877 4.6772e-06 
924.316 4.31435e-06 
924.756 4.12743e-06 
925.195 4.02986e-06 
925.635 3.97408e-06 
926.074 3.93975e-06 
926.514 3.91785e-06 
926.953 3.90398e-06 
927.393 3.89566e-06 
927.832 3.89125e-06 
928.271 3.88961e-06 
928.711 3.89005e-06 
929.15 3.89203e-06 
929.59 3.89521e-06 
930.029 3.89943e-06 
930.469 3.90484e-06 
930.908 3.91184e-06 
931.348 3.92119e-06 
931.787 3.93388e-06 
932.227 3.95043e-06 
932.666 3.96972e-06 
933.105 3.98819e-06 
933.545 4.00121e-06 
933.984 4.00536e-06 
934.424 4.00176e-06 
934.863 3.9941e-06 
935.303 3.98531e-06 
935.742 3.97761e-06 
936.182 3.97317e-06 
936.621 3.97346e-06 
937.061 3.97969e-06 
937.5 3.99391e-06 
937.939 4.02016e-06 
938.379 4.0671e-06 
938.818 4.15475e-06 
939.258 4.33051e-06 
939.697 4.67879e-06 
940.137 5.06467e-06 
940.576 4.96241e-06 
941.016 4.54582e-06 
941.455 4.24218e-06 
941.895 4.08981e-06 
942.334 4.01185e-06 
942.773 3.96846e-06 
943.213 3.94246e-06 
943.652 3.92598e-06 
944.092 3.91511e-06 
944.531 3.90773e-06 
944.971 3.90263e-06 
945.41 3.89909e-06 
945.85 3.89664e-06 
946.289 3.89496e-06 
946.729 3.89387e-06 
947.168 3.89321e-06 
947.607 3.89289e-06 
948.047 3.89284e-06 
948.486 3.89299e-06 
948.926 3.89332e-06 
949.365 3.89381e-06 
949.805 3.89442e-06 
950.244 3.89516e-06 
950.684 3.89601e-06 
951.123 3.89697e-06 
951.562 3.89805e-06 
952.002 3.89923e-06 
952.441 3.90053e-06 
952.881 3.90194e-06 
953.32 3.90347e-06 
953.76 3.90512e-06 
954.199 3.90692e-06 
954.639 3.90885e-06 
955.078 3.91093e-06 
955.518 3.91316e-06 
955.957 3.91557e-06 
956.396 3.91816e-06 
956.836 3.92093e-06 
957.275 3.9239e-06 
957.715 3.92706e-06 
958.154 3.93042e-06 
958.594 3.93397e-06 
959.033 3.93771e-06 
959.473 3.94164e-06 
959.912 3.94575e-06 
960.352 3.95004e-06 
960.791 3.9545e-06 
961.23 3.95914e-06 
961.67 3.96392e-06 
962.109 3.96885e-06 
962.549 3.97391e-06 
962.988 3.97907e-06 
963.428 3.98428e-06 
963.867 3.98952e-06 
964.307 3.99472e-06 
964.746 3.99984e-06 
965.186 4.0048e-06 
965.625 4.00955e-06 
966.064 4.01403e-06 
966.504 4.0182e-06 
966.943 4.02201e-06 
967.383 4.02544e-06 
967.822 4.02847e-06 
968.262 4.03109e-06 
968.701 4.03331e-06 
969.141 4.03509e-06 
969.58 4.03645e-06 
970.02 4.03739e-06 
970.459 4.0379e-06 
970.898 4.038e-06 
971.338 4.03771e-06 
971.777 4.03705e-06 
972.217 4.03606e-06 
972.656 4.03478e-06 
973.096 4.03326e-06 
973.535 4.03154e-06 
973.975 4.02963e-06 
974.414 4.02757e-06 
974.854 4.02536e-06 
975.293 4.02301e-06 
975.732 4.02052e-06 
976.172 4.01791e-06 
976.611 4.0152e-06 
977.051 4.01241e-06 
977.49 4.00959e-06 
977.93 4.0068e-06 
978.369 4.00412e-06 
978.809 4.00163e-06 
979.248 3.99939e-06 
979.688 3.9975e-06 
980.127 3.99603e-06 
980.566 3.99505e-06 
981.006 3.99462e-06 
981.445 3.99477e-06 
981.885 3.99551e-06 
982.324 3.99685e-06 
982.764 3.99878e-06 
983.203 4.0013e-06 
983.643 4.00442e-06 
984.082 4.00817e-06 
984.521 4.01259e-06 
984.961 4.01772e-06 
985.4 4.02361e-06 
985.84 4.03025e-06 
986.279 4.03761e-06 
986.719 4.04558e-06 
987.158 4.05409e-06 
987.598 4.06308e-06 
988.037 4.07261e-06 
988.477 4.08283e-06 
988.916 4.09405e-06 
989.355 4.10668e-06 
989.795 4.12122e-06 
990.234 4.13821e-06 
990.674 4.15816e-06 
991.113 4.18137e-06 
991.553 4.20789e-06 
991.992 4.23722e-06 
992.432 4.26806e-06 
992.871 4.29808e-06 
993.311 4.32397e-06 
993.75 4.34218e-06 
994.189 4.3501e-06 
994.629 4.34722e-06 
995.068 4.33518e-06 
995.508 4.31701e-06 
995.947 4.29581e-06 
996.387 4.27409e-06 
996.826 4.25354e-06 
997.266 4.2351e-06 
997.705 4.21909e-06 
998.145 4.20536e-06 
998.584 4.19344e-06 
999.023 4.18272e-06 
999.463 4.17258e-06 
999.902 4.16262e-06 
1000.34 4.15259e-06 
1000.78 4.14241e-06 
1001.22 4.13216e-06 
1001.66 4.12202e-06 
1002.1 4.11229e-06 
1002.54 4.1034e-06 
1002.98 4.09574e-06 
1003.42 4.08947e-06 
1003.86 4.0842e-06 
1004.3 4.07888e-06 
1004.74 4.07212e-06 
1005.18 4.06279e-06 
1005.62 4.05045e-06 
1006.05 4.0355e-06 
1006.49 4.01907e-06 
1006.93 4.00255e-06 
1007.37 3.98715e-06 
1007.81 3.97349e-06 
1008.25 3.9617e-06 
1008.69 3.95188e-06 
1009.13 3.9443e-06 
1009.57 3.93928e-06 
1010.01 3.93692e-06 
1010.45 3.93699e-06 
1010.89 3.93911e-06 
1011.33 3.94293e-06 
1011.77 3.94823e-06 
1012.21 3.95484e-06 
1012.65 3.9627e-06 
1013.09 3.97199e-06 
1013.53 3.98324e-06 
1013.96 3.99732e-06 
1014.4 4.01552e-06 
1014.84 4.03904e-06 
1015.28 4.06766e-06 
1015.72 4.09789e-06 
1016.16 4.12306e-06 
1016.6 4.13588e-06 
1017.04 4.13337e-06 
1017.48 4.11955e-06 
1017.92 4.10084e-06 
1018.36 4.082e-06 
1018.8 4.06689e-06 
1019.24 4.0585e-06 
1019.68 4.05863e-06 
1020.12 4.06913e-06 
1020.56 4.09366e-06 
1021 4.13987e-06 
1021.44 4.22493e-06 
1021.88 4.38929e-06 
1022.31 4.7251e-06 
