#energy geo_1 
600 4.39881e-06 
600.439 4.40324e-06 
600.879 4.40764e-06 
601.318 4.41204e-06 
601.758 4.41643e-06 
602.197 4.42082e-06 
602.637 4.42521e-06 
603.076 4.4296e-06 
603.516 4.43402e-06 
603.955 4.43845e-06 
604.395 4.44291e-06 
604.834 4.4474e-06 
605.273 4.45193e-06 
605.713 4.45649e-06 
606.152 4.46111e-06 
606.592 4.46579e-06 
607.031 4.47054e-06 
607.471 4.47537e-06 
607.91 4.48029e-06 
608.35 4.48533e-06 
608.789 4.49053e-06 
609.229 4.49593e-06 
609.668 4.50157e-06 
610.107 4.50746e-06 
610.547 4.5136e-06 
610.986 4.52003e-06 
611.426 4.52674e-06 
611.865 4.53376e-06 
612.305 4.5411e-06 
612.744 4.54876e-06 
613.184 4.55675e-06 
613.623 4.56509e-06 
614.062 4.57378e-06 
614.502 4.58285e-06 
614.941 4.59234e-06 
615.381 4.60232e-06 
615.82 4.61291e-06 
616.26 4.62425e-06 
616.699 4.6365e-06 
617.139 4.64988e-06 
617.578 4.66464e-06 
618.018 4.68107e-06 
618.457 4.69952e-06 
618.896 4.72043e-06 
619.336 4.74429e-06 
619.775 4.77165e-06 
620.215 4.80307e-06 
620.654 4.83895e-06 
621.094 4.87936e-06 
621.533 4.92356e-06 
621.973 4.96949e-06 
622.412 5.01336e-06 
622.852 5.04969e-06 
623.291 5.0727e-06 
623.73 5.07857e-06 
624.17 5.06737e-06 
624.609 5.04298e-06 
625.049 5.01115e-06 
625.488 4.97714e-06 
625.928 4.94456e-06 
626.367 4.91533e-06 
626.807 4.89007e-06 
627.246 4.86866e-06 
627.686 4.85063e-06 
628.125 4.83544e-06 
628.564 4.82258e-06 
629.004 4.81159e-06 
629.443 4.80214e-06 
629.883 4.79396e-06 
630.322 4.78687e-06 
630.762 4.78078e-06 
631.201 4.77563e-06 
631.641 4.7714e-06 
632.08 4.76809e-06 
632.52 4.76573e-06 
632.959 4.76431e-06 
633.398 4.76385e-06 
633.838 4.76438e-06 
634.277 4.76592e-06 
634.717 4.76851e-06 
635.156 4.77216e-06 
635.596 4.77689e-06 
636.035 4.78272e-06 
636.475 4.78967e-06 
636.914 4.79773e-06 
637.354 4.80687e-06 
637.793 4.81703e-06 
638.232 4.82811e-06 
638.672 4.84003e-06 
639.111 4.85268e-06 
639.551 4.86594e-06 
639.99 4.87969e-06 
640.43 4.89383e-06 
640.869 4.90824e-06 
641.309 4.92293e-06 
641.748 4.93796e-06 
642.188 4.95353e-06 
642.627 4.97005e-06 
643.066 4.98812e-06 
643.506 5.00867e-06 
643.945 5.03282e-06 
644.385 5.06195e-06 
644.824 5.09763e-06 
645.264 5.14175e-06 
645.703 5.19648e-06 
646.143 5.26437e-06 
646.582 5.34836e-06 
647.021 5.45179e-06 
647.461 5.57817e-06 
647.9 5.73067e-06 
648.34 5.91118e-06 
648.779 6.11839e-06 
649.219 6.34514e-06 
649.658 6.57513e-06 
650.098 6.78119e-06 
650.537 6.92893e-06 
650.977 6.98736e-06 
651.416 6.94299e-06 
651.855 6.80699e-06 
652.295 6.609e-06 
652.734 6.38356e-06 
653.174 6.1587e-06 
653.613 5.95187e-06 
654.053 5.77123e-06 
654.492 5.61868e-06 
654.932 5.49275e-06 
655.371 5.39046e-06 
655.811 5.30843e-06 
656.25 5.24337e-06 
656.689 5.19244e-06 
657.129 5.1533e-06 
657.568 5.12421e-06 
658.008 5.10402e-06 
658.447 5.0921e-06 
658.887 5.08823e-06 
659.326 5.09253e-06 
659.766 5.10532e-06 
660.205 5.12705e-06 
660.645 5.15832e-06 
661.084 5.19993e-06 
661.523 5.25297e-06 
661.963 5.31897e-06 
662.402 5.39989e-06 
662.842 5.49785e-06 
663.281 5.61465e-06 
663.721 5.75068e-06 
664.16 5.90355e-06 
664.6 6.06625e-06 
665.039 6.22629e-06 
665.479 6.36705e-06 
665.918 6.4729e-06 
666.357 6.53608e-06 
666.797 6.56039e-06 
667.236 6.55762e-06 
667.676 6.53912e-06 
668.115 6.509e-06 
668.555 6.4632e-06 
668.994 6.3944e-06 
669.434 6.29928e-06 
669.873 6.18239e-06 
670.312 6.0543e-06 
670.752 5.92635e-06 
671.191 5.80658e-06 
671.631 5.69874e-06 
672.07 5.60379e-06 
672.51 5.52132e-06 
672.949 5.45027e-06 
673.389 5.38925e-06 
673.828 5.33664e-06 
674.268 5.29134e-06 
674.707 5.2528e-06 
675.146 5.2206e-06 
675.586 5.19396e-06 
676.025 5.17149e-06 
676.465 5.15227e-06 
676.904 5.13633e-06 
677.344 5.12422e-06 
677.783 5.11636e-06 
678.223 5.11278e-06 
678.662 5.11419e-06 
679.102 5.12183e-06 
679.541 5.13611e-06 
679.98 5.15727e-06 
680.42 5.18634e-06 
680.859 5.2237e-06 
681.299 5.26807e-06 
681.738 5.31667e-06 
682.178 5.36822e-06 
682.617 5.42417e-06 
683.057 5.483e-06 
683.496 5.53658e-06 
683.936 5.56988e-06 
684.375 5.57177e-06 
684.814 5.54245e-06 
685.254 5.48856e-06 
685.693 5.41995e-06 
686.133 5.35183e-06 
686.572 5.29741e-06 
687.012 5.26205e-06 
687.451 5.24609e-06 
687.891 5.24895e-06 
688.33 5.27425e-06 
688.77 5.32793e-06 
689.209 5.4181e-06 
689.648 5.5609e-06 
690.088 5.786e-06 
690.527 6.14528e-06 
690.967 6.73137e-06 
691.406 7.72796e-06 
691.846 9.53858e-06 
692.285 1.3111e-05 
692.725 2.04885e-05 
693.164 3.17876e-05 
693.604 3.17567e-05 
694.043 2.10467e-05 
694.482 1.34055e-05 
694.922 9.54055e-06 
695.361 7.56239e-06 
695.801 6.46099e-06 
696.24 5.79707e-06 
696.68 5.36713e-06 
697.119 5.06952e-06 
697.559 4.85807e-06 
697.998 4.71334e-06 
698.438 4.6211e-06 
698.877 4.56037e-06 
699.316 4.50584e-06 
699.756 4.44494e-06 
700.195 4.37348e-06 
700.635 4.2918e-06 
701.074 4.21274e-06 
701.514 4.1595e-06 
701.953 4.14537e-06 
702.393 4.17275e-06 
702.832 4.23851e-06 
703.271 4.34629e-06 
703.711 4.50834e-06 
704.15 4.74141e-06 
704.59 5.07232e-06 
705.029 5.54978e-06 
705.469 6.2583e-06 
705.908 7.34772e-06 
706.348 9.10089e-06 
706.787 1.21115e-05 
707.227 1.77417e-05 
707.666 2.91439e-05 
708.105 5.00854e-05 
708.545 6.21932e-05 
708.984 4.50195e-05 
709.424 2.73431e-05 
709.863 1.79564e-05 
710.303 1.34174e-05 
710.742 1.10503e-05 
711.182 9.6432e-06 
711.621 8.64979e-06 
712.061 7.82537e-06 
712.5 7.07696e-06 
712.939 6.38543e-06 
713.379 5.75819e-06 
713.818 5.20457e-06 
714.258 4.72729e-06 
714.697 4.32263e-06 
715.137 3.98299e-06 
715.576 3.69945e-06 
716.016 3.46324e-06 
716.455 3.26654e-06 
716.895 3.10275e-06 
717.334 2.96644e-06 
717.773 2.85334e-06 
718.213 2.76014e-06 
718.652 2.68441e-06 
719.092 2.62443e-06 
719.531 2.57911e-06 
719.971 2.54786e-06 
720.41 2.53059e-06 
720.85 2.52764e-06 
721.289 2.53984e-06 
721.729 2.56845e-06 
722.168 2.61521e-06 
722.607 2.68217e-06 
723.047 2.77145e-06 
723.486 2.88462e-06 
723.926 3.02152e-06 
724.365 3.17847e-06 
724.805 3.34583e-06 
725.244 3.50608e-06 
725.684 3.63439e-06 
726.123 3.70406e-06 
726.562 3.69632e-06 
727.002 3.60909e-06 
727.441 3.45808e-06 
727.881 3.26906e-06 
728.32 3.06768e-06 
728.76 2.87285e-06 
729.199 2.69536e-06 
729.639 2.53953e-06 
730.078 2.40566e-06 
730.518 2.29202e-06 
730.957 2.19607e-06 
731.396 2.11516e-06 
731.836 2.04686e-06 
732.275 1.98905e-06 
732.715 1.93996e-06 
733.154 1.8981e-06 
733.594 1.86226e-06 
734.033 1.83145e-06 
734.473 1.80486e-06 
734.912 1.78181e-06 
735.352 1.76176e-06 
735.791 1.74425e-06 
736.23 1.72892e-06 
736.67 1.71548e-06 
737.109 1.70369e-06 
737.549 1.69335e-06 
737.988 1.68431e-06 
738.428 1.67643e-06 
738.867 1.66959e-06 
739.307 1.6637e-06 
739.746 1.65866e-06 
740.186 1.65441e-06 
740.625 1.65087e-06 
741.064 1.64799e-06 
741.504 1.64572e-06 
741.943 1.64401e-06 
742.383 1.64284e-06 
742.822 1.64215e-06 
743.262 1.64192e-06 
743.701 1.6421e-06 
744.141 1.64267e-06 
744.58 1.64359e-06 
745.02 1.64485e-06 
745.459 1.64641e-06 
745.898 1.64824e-06 
746.338 1.65031e-06 
746.777 1.65259e-06 
747.217 1.65503e-06 
747.656 1.65759e-06 
748.096 1.66022e-06 
748.535 1.66288e-06 
748.975 1.6655e-06 
749.414 1.66802e-06 
749.854 1.67039e-06 
750.293 1.67256e-06 
750.732 1.67448e-06 
751.172 1.67616e-06 
751.611 1.6776e-06 
752.051 1.67883e-06 
752.49 1.67989e-06 
752.93 1.68084e-06 
753.369 1.68174e-06 
753.809 1.68268e-06 
754.248 1.68374e-06 
754.688 1.685e-06 
755.127 1.68656e-06 
755.566 1.68853e-06 
756.006 1.69104e-06 
756.445 1.69419e-06 
756.885 1.69811e-06 
757.324 1.70294e-06 
757.764 1.70879e-06 
758.203 1.71578e-06 
758.643 1.72404e-06 
759.082 1.73367e-06 
759.521 1.74479e-06 
759.961 1.75752e-06 
760.4 1.77202e-06 
760.84 1.78846e-06 
761.279 1.80706e-06 
761.719 1.82805e-06 
762.158 1.85174e-06 
762.598 1.87854e-06 
763.037 1.90906e-06 
763.477 1.94421e-06 
763.916 1.9852e-06 
764.355 2.03365e-06 
764.795 2.09154e-06 
765.234 2.16124e-06 
765.674 2.24552e-06 
766.113 2.34766e-06 
766.553 2.47152e-06 
766.992 2.6217e-06 
767.432 2.8036e-06 
767.871 3.02337e-06 
768.311 3.28751e-06 
768.75 3.6019e-06 
769.189 3.96978e-06 
769.629 4.38814e-06 
770.068 4.84247e-06 
770.508 5.30086e-06 
770.947 5.7113e-06 
771.387 6.0083e-06 
771.826 6.13194e-06 
772.266 6.05315e-06 
772.705 5.78819e-06 
773.145 5.39045e-06 
773.584 4.92656e-06 
774.023 4.45384e-06 
774.463 4.01018e-06 
774.902 3.61464e-06 
775.342 3.27301e-06 
775.781 2.98353e-06 
776.221 2.74095e-06 
776.66 2.53897e-06 
777.1 2.37145e-06 
777.539 2.23299e-06 
777.979 2.11914e-06 
778.418 2.02635e-06 
778.857 1.95198e-06 
779.297 1.89416e-06 
779.736 1.8517e-06 
780.176 1.82402e-06 
780.615 1.81104e-06 
781.055 1.81318e-06 
781.494 1.83135e-06 
781.934 1.867e-06 
782.373 1.92208e-06 
782.812 1.99904e-06 
783.252 2.10064e-06 
783.691 2.22948e-06 
784.131 2.38707e-06 
784.57 2.5722e-06 
785.01 2.77836e-06 
785.449 2.99084e-06 
785.889 3.18503e-06 
786.328 3.32892e-06 
786.768 3.39172e-06 
787.207 3.35633e-06 
787.646 3.22766e-06 
788.086 3.03012e-06 
788.525 2.7964e-06 
788.965 2.55584e-06 
789.404 2.32857e-06 
789.844 2.12521e-06 
790.283 1.94949e-06 
790.723 1.80111e-06 
791.162 1.67789e-06 
791.602 1.57704e-06 
792.041 1.49588e-06 
792.48 1.43212e-06 
792.92 1.38398e-06 
793.359 1.35023e-06 
793.799 1.33011e-06 
794.238 1.32327e-06 
794.678 1.32962e-06 
795.117 1.34904e-06 
795.557 1.38088e-06 
795.996 1.42323e-06 
796.436 1.47193e-06 
796.875 1.51966e-06 
797.314 1.55618e-06 
797.754 1.57055e-06 
798.193 1.55521e-06 
798.633 1.50958e-06 
799.072 1.44019e-06 
799.512 1.35734e-06 
799.951 1.27097e-06 
800.391 1.1882e-06 
800.83 1.11296e-06 
801.27 1.0467e-06 
801.709 9.89391e-07 
802.148 9.40255e-07 
802.588 8.98246e-07 
803.027 8.62299e-07 
803.467 8.31442e-07 
803.906 8.04835e-07 
804.346 7.81774e-07 
804.785 7.61676e-07 
805.225 7.44064e-07 
805.664 7.28547e-07 
806.104 7.14807e-07 
806.543 7.02581e-07 
806.982 6.91652e-07 
807.422 6.81843e-07 
807.861 6.73005e-07 
808.301 6.65015e-07 
808.74 6.57768e-07 
809.18 6.51175e-07 
809.619 6.45162e-07 
810.059 6.39664e-07 
810.498 6.34625e-07 
810.938 6.29997e-07 
811.377 6.25738e-07 
811.816 6.21811e-07 
812.256 6.18186e-07 
812.695 6.14834e-07 
813.135 6.11731e-07 
813.574 6.08858e-07 
814.014 6.06195e-07 
814.453 6.03727e-07 
814.893 6.01441e-07 
815.332 5.99325e-07 
815.771 5.97367e-07 
816.211 5.95557e-07 
816.65 5.93888e-07 
817.09 5.9235e-07 
817.529 5.90936e-07 
817.969 5.89639e-07 
818.408 5.88452e-07 
818.848 5.87369e-07 
819.287 5.86381e-07 
819.727 5.85483e-07 
820.166 5.84665e-07 
820.605 5.8392e-07 
821.045 5.83238e-07 
821.484 5.82611e-07 
821.924 5.82032e-07 
822.363 5.81495e-07 
822.803 5.80995e-07 
823.242 5.80529e-07 
823.682 5.80097e-07 
824.121 5.79701e-07 
824.561 5.7934e-07 
825 5.79017e-07 
825.439 5.78733e-07 
825.879 5.78488e-07 
826.318 5.78283e-07 
826.758 5.78118e-07 
827.197 5.77993e-07 
827.637 5.77908e-07 
828.076 5.77863e-07 
828.516 5.77859e-07 
828.955 5.77894e-07 
829.395 5.77968e-07 
829.834 5.78077e-07 
830.273 5.78219e-07 
830.713 5.78392e-07 
831.152 5.78594e-07 
831.592 5.78822e-07 
832.031 5.79073e-07 
832.471 5.79346e-07 
832.91 5.79637e-07 
833.35 5.79939e-07 
833.789 5.80249e-07 
834.229 5.80561e-07 
834.668 5.80868e-07 
835.107 5.81166e-07 
835.547 5.81447e-07 
835.986 5.81703e-07 
836.426 5.81926e-07 
836.865 5.82111e-07 
837.305 5.82253e-07 
837.744 5.82352e-07 
838.184 5.82409e-07 
838.623 5.8243e-07 
839.062 5.82422e-07 
839.502 5.82393e-07 
839.941 5.82353e-07 
840.381 5.82317e-07 
840.82 5.82295e-07 
841.26 5.82305e-07 
841.699 5.82363e-07 
842.139 5.82486e-07 
842.578 5.82697e-07 
843.018 5.83016e-07 
843.457 5.83465e-07 
843.896 5.84069e-07 
844.336 5.84849e-07 
844.775 5.85831e-07 
845.215 5.87035e-07 
845.654 5.88485e-07 
846.094 5.902e-07 
846.533 5.92205e-07 
846.973 5.94529e-07 
847.412 5.97203e-07 
847.852 6.00268e-07 
848.291 6.03768e-07 
848.73 6.07755e-07 
849.17 6.12303e-07 
849.609 6.17522e-07 
850.049 6.23571e-07 
850.488 6.30676e-07 
850.928 6.39131e-07 
851.367 6.49304e-07 
851.807 6.61635e-07 
852.246 6.76638e-07 
852.686 6.94916e-07 
853.125 7.17186e-07 
853.564 7.44297e-07 
854.004 7.77252e-07 
854.443 8.17204e-07 
854.883 8.65393e-07 
855.322 9.22988e-07 
855.762 9.90723e-07 
856.201 1.06827e-06 
856.641 1.15323e-06 
857.08 1.23997e-06 
857.52 1.31888e-06 
857.959 1.37736e-06 
858.398 1.40341e-06 
858.838 1.39071e-06 
859.277 1.34178e-06 
859.717 1.26666e-06 
860.156 1.1782e-06 
860.596 1.08756e-06 
861.035 1.00214e-06 
861.475 9.25694e-07 
861.914 8.59371e-07 
862.354 8.02849e-07 
862.793 7.55117e-07 
863.232 7.14952e-07 
863.672 6.81154e-07 
864.111 6.52651e-07 
864.551 6.28531e-07 
864.99 6.08032e-07 
865.43 5.90531e-07 
865.869 5.75522e-07 
866.309 5.6259e-07 
866.748 5.514e-07 
867.188 5.41678e-07 
867.627 5.33199e-07 
868.066 5.25781e-07 
868.506 5.1927e-07 
868.945 5.1354e-07 
869.385 5.08487e-07 
869.824 5.04021e-07 
870.264 5.00068e-07 
870.703 4.96563e-07 
871.143 4.93451e-07 
871.582 4.90687e-07 
872.021 4.88228e-07 
872.461 4.86042e-07 
872.9 4.84097e-07 
873.34 4.82369e-07 
873.779 4.80836e-07 
874.219 4.79479e-07 
874.658 4.78283e-07 
875.098 4.77236e-07 
875.537 4.76324e-07 
875.977 4.75538e-07 
876.416 4.74871e-07 
876.855 4.74313e-07 
877.295 4.73859e-07 
877.734 4.73502e-07 
878.174 4.73236e-07 
878.613 4.73057e-07 
879.053 4.72956e-07 
879.492 4.7293e-07 
879.932 4.72972e-07 
880.371 4.73074e-07 
880.811 4.7323e-07 
881.25 4.73428e-07 
881.689 4.73662e-07 
882.129 4.73923e-07 
882.568 4.74204e-07 
883.008 4.74499e-07 
883.447 4.74805e-07 
883.887 4.7512e-07 
884.326 4.75447e-07 
884.766 4.75786e-07 
885.205 4.76141e-07 
885.645 4.76514e-07 
886.084 4.76907e-07 
886.523 4.77322e-07 
886.963 4.77759e-07 
887.402 4.78221e-07 
887.842 4.78708e-07 
888.281 4.79221e-07 
888.721 4.79761e-07 
889.16 4.8033e-07 
889.6 4.80926e-07 
890.039 4.81548e-07 
890.479 4.82196e-07 
890.918 4.82865e-07 
891.357 4.83555e-07 
891.797 4.84263e-07 
892.236 4.84988e-07 
892.676 4.85726e-07 
893.115 4.86475e-07 
893.555 4.87228e-07 
893.994 4.87982e-07 
894.434 4.88728e-07 
894.873 4.89462e-07 
895.312 4.90174e-07 
895.752 4.90858e-07 
896.191 4.91504e-07 
896.631 4.92102e-07 
897.07 4.92645e-07 
897.51 4.93125e-07 
897.949 4.93539e-07 
898.389 4.93887e-07 
898.828 4.94174e-07 
899.268 4.94408e-07 
899.707 4.94597e-07 
900.146 4.94755e-07 
900.586 4.94897e-07 
901.025 4.95039e-07 
901.465 4.95199e-07 
901.904 4.95399e-07 
902.344 4.95659e-07 
902.783 4.96007e-07 
903.223 4.96467e-07 
903.662 4.97067e-07 
904.102 4.97836e-07 
904.541 4.98804e-07 
904.98 4.99999e-07 
905.42 5.01451e-07 
905.859 5.03187e-07 
906.299 5.05235e-07 
906.738 5.07624e-07 
907.178 5.10385e-07 
907.617 5.13558e-07 
908.057 5.17189e-07 
908.496 5.21331e-07 
908.936 5.26046e-07 
909.375 5.31411e-07 
909.814 5.37535e-07 
910.254 5.44576e-07 
910.693 5.52761e-07 
911.133 5.62399e-07 
911.572 5.73886e-07 
912.012 5.87707e-07 
912.451 6.04432e-07 
912.891 6.2473e-07 
913.33 6.49387e-07 
913.77 6.79332e-07 
914.209 7.15671e-07 
914.648 7.59697e-07 
915.088 8.12872e-07 
915.527 8.7671e-07 
915.967 9.5252e-07 
916.406 1.04086e-06 
916.846 1.14062e-06 
917.285 1.24765e-06 
917.725 1.35342e-06 
918.164 1.44464e-06 
918.604 1.50546e-06 
919.043 1.5228e-06 
919.482 1.49228e-06 
919.922 1.42042e-06 
920.361 1.32137e-06 
920.801 1.2107e-06 
921.24 1.10076e-06 
921.68 9.99088e-07 
922.119 9.09121e-07 
922.559 8.31561e-07 
922.998 7.65658e-07 
923.438 7.10041e-07 
923.877 6.63196e-07 
924.316 6.23695e-07 
924.756 5.90286e-07 
925.195 5.61909e-07 
925.635 5.37692e-07 
926.074 5.1692e-07 
926.514 4.99008e-07 
926.953 4.83485e-07 
927.393 4.69964e-07 
927.832 4.58131e-07 
928.271 4.47727e-07 
928.711 4.38539e-07 
929.15 4.30393e-07 
929.59 4.23141e-07 
930.029 4.16662e-07 
930.469 4.10853e-07 
930.908 4.05629e-07 
931.348 4.00915e-07 
931.787 3.9665e-07 
932.227 3.92781e-07 
932.666 3.89261e-07 
933.105 3.86052e-07 
933.545 3.83119e-07 
933.984 3.80434e-07 
934.424 3.7797e-07 
934.863 3.75704e-07 
935.303 3.73618e-07 
935.742 3.71694e-07 
936.182 3.69917e-07 
936.621 3.68272e-07 
937.061 3.66748e-07 
937.5 3.65335e-07 
937.939 3.64022e-07 
938.379 3.62802e-07 
938.818 3.61666e-07 
939.258 3.60608e-07 
939.697 3.59621e-07 
940.137 3.58701e-07 
940.576 3.57841e-07 
941.016 3.57038e-07 
941.455 3.56287e-07 
941.895 3.55584e-07 
942.334 3.54926e-07 
942.773 3.5431e-07 
943.213 3.53733e-07 
943.652 3.53193e-07 
944.092 3.52686e-07 
944.531 3.52212e-07 
944.971 3.51767e-07 
945.41 3.5135e-07 
945.85 3.50959e-07 
946.289 3.50592e-07 
946.729 3.50249e-07 
947.168 3.49928e-07 
947.607 3.49627e-07 
948.047 3.49345e-07 
948.486 3.49082e-07 
948.926 3.48836e-07 
949.365 3.48607e-07 
949.805 3.48393e-07 
950.244 3.48193e-07 
950.684 3.48008e-07 
951.123 3.47836e-07 
951.562 3.47676e-07 
952.002 3.47528e-07 
952.441 3.47392e-07 
952.881 3.47266e-07 
953.32 3.4715e-07 
953.76 3.47045e-07 
954.199 3.46949e-07 
954.639 3.46862e-07 
955.078 3.46783e-07 
955.518 3.46712e-07 
955.957 3.4665e-07 
956.396 3.46594e-07 
956.836 3.46546e-07 
957.275 3.46505e-07 
957.715 3.4647e-07 
958.154 3.46441e-07 
958.594 3.46419e-07 
959.033 3.46402e-07 
959.473 3.46391e-07 
959.912 3.46385e-07 
960.352 3.46385e-07 
960.791 3.46389e-07 
961.23 3.46398e-07 
961.67 3.46411e-07 
962.109 3.46429e-07 
962.549 3.46451e-07 
962.988 3.46477e-07 
963.428 3.46506e-07 
963.867 3.4654e-07 
964.307 3.46577e-07 
964.746 3.46617e-07 
965.186 3.46661e-07 
965.625 3.46708e-07 
966.064 3.46758e-07 
966.504 3.46811e-07 
966.943 3.46867e-07 
967.383 3.46926e-07 
967.822 3.46987e-07 
968.262 3.47051e-07 
968.701 3.47117e-07 
969.141 3.47185e-07 
969.58 3.47256e-07 
970.02 3.47329e-07 
970.459 3.47404e-07 
970.898 3.47482e-07 
971.338 3.47561e-07 
971.777 3.47642e-07 
972.217 3.47725e-07 
972.656 3.4781e-07 
973.096 3.47896e-07 
973.535 3.47984e-07 
973.975 3.48074e-07 
974.414 3.48165e-07 
974.854 3.48258e-07 
975.293 3.48352e-07 
975.732 3.48448e-07 
976.172 3.48545e-07 
976.611 3.48644e-07 
977.051 3.48744e-07 
977.49 3.48845e-07 
977.93 3.48948e-07 
978.369 3.49051e-07 
978.809 3.49156e-07 
979.248 3.49263e-07 
979.688 3.4937e-07 
980.127 3.49478e-07 
980.566 3.49588e-07 
981.006 3.49699e-07 
981.445 3.49811e-07 
981.885 3.49923e-07 
982.324 3.50037e-07 
982.764 3.50152e-07 
983.203 3.50268e-07 
983.643 3.50385e-07 
984.082 3.50503e-07 
984.521 3.50621e-07 
984.961 3.50741e-07 
985.4 3.50862e-07 
985.84 3.50983e-07 
986.279 3.51106e-07 
986.719 3.51229e-07 
987.158 3.51353e-07 
987.598 3.51478e-07 
988.037 3.51603e-07 
988.477 3.5173e-07 
988.916 3.51857e-07 
989.355 3.51985e-07 
989.795 3.52114e-07 
990.234 3.52243e-07 
990.674 3.52374e-07 
991.113 3.52504e-07 
991.553 3.52636e-07 
991.992 3.52768e-07 
992.432 3.52901e-07 
992.871 3.53035e-07 
993.311 3.53169e-07 
993.75 3.53303e-07 
994.189 3.53438e-07 
994.629 3.53574e-07 
995.068 3.5371e-07 
995.508 3.53847e-07 
995.947 3.53984e-07 
996.387 3.54121e-07 
996.826 3.54259e-07 
997.266 3.54398e-07 
997.705 3.54537e-07 
998.145 3.54676e-07 
998.584 3.54816e-07 
999.023 3.54956e-07 
999.463 3.55096e-07 
999.902 3.55237e-07 
1000.34 3.55378e-07 
1000.78 3.55519e-07 
1001.22 3.5566e-07 
1001.66 3.55802e-07 
1002.1 3.55944e-07 
1002.54 3.56087e-07 
1002.98 3.56229e-07 
1003.42 3.56372e-07 
1003.86 3.56515e-07 
1004.3 3.56659e-07 
1004.74 3.56802e-07 
1005.18 3.56946e-07 
1005.62 3.5709e-07 
1006.05 3.57234e-07 
1006.49 3.57379e-07 
1006.93 3.57523e-07 
1007.37 3.57669e-07 
1007.81 3.57814e-07 
1008.25 3.57959e-07 
1008.69 3.58104e-07 
1009.13 3.5825e-07 
1009.57 3.58396e-07 
1010.01 3.58542e-07 
1010.45 3.58688e-07 
1010.89 3.58835e-07 
1011.33 3.58982e-07 
1011.77 3.59129e-07 
1012.21 3.59276e-07 
1012.65 3.59423e-07 
1013.09 3.59571e-07 
1013.53 3.59719e-07 
1013.96 3.59867e-07 
1014.4 3.60016e-07 
1014.84 3.60164e-07 
1015.28 3.60313e-07 
1015.72 3.60462e-07 
1016.16 3.60612e-07 
1016.6 3.60761e-07 
1017.04 3.60911e-07 
1017.48 3.61061e-07 
1017.92 3.61211e-07 
1018.36 3.61362e-07 
1018.8 3.61513e-07 
1019.24 3.61664e-07 
1019.68 3.61815e-07 
1020.12 3.61966e-07 
1020.56 3.62118e-07 
1021 3.6227e-07 
1021.44 3.62422e-07 
1021.88 3.62574e-07 
