#energy geo_1 
600 4.53472e-06 
600.439 4.5376e-06 
600.879 4.54035e-06 
601.318 4.54298e-06 
601.758 4.54553e-06 
602.197 4.54807e-06 
602.637 4.55065e-06 
603.076 4.55335e-06 
603.516 4.5562e-06 
603.955 4.55927e-06 
604.395 4.56257e-06 
604.834 4.56613e-06 
605.273 4.56998e-06 
605.713 4.57415e-06 
606.152 4.57872e-06 
606.592 4.58378e-06 
607.031 4.58949e-06 
607.471 4.59598e-06 
607.91 4.60334e-06 
608.35 4.61167e-06 
608.789 4.621e-06 
609.229 4.6314e-06 
609.668 4.64293e-06 
610.107 4.65567e-06 
610.547 4.66982e-06 
610.986 4.68565e-06 
611.426 4.70351e-06 
611.865 4.72377e-06 
612.305 4.74665e-06 
612.744 4.77234e-06 
613.184 4.80088e-06 
613.623 4.83228e-06 
614.062 4.8664e-06 
614.502 4.90302e-06 
614.941 4.94198e-06 
615.381 4.98314e-06 
615.82 5.0265e-06 
616.26 5.0722e-06 
616.699 5.12064e-06 
617.139 5.17215e-06 
617.578 5.22689e-06 
618.018 5.28426e-06 
618.457 5.34267e-06 
618.896 5.39915e-06 
619.336 5.44935e-06 
619.775 5.48822e-06 
620.215 5.51084e-06 
620.654 5.51423e-06 
621.094 5.49894e-06 
621.533 5.46875e-06 
621.973 5.42929e-06 
622.412 5.38615e-06 
622.852 5.3436e-06 
623.291 5.30428e-06 
623.73 5.2691e-06 
624.17 5.23777e-06 
624.609 5.20947e-06 
625.049 5.18308e-06 
625.488 5.15732e-06 
625.928 5.13074e-06 
626.367 5.10246e-06 
626.807 5.0724e-06 
627.246 5.04124e-06 
627.686 5.01014e-06 
628.125 4.98023e-06 
628.564 4.95248e-06 
629.004 4.9277e-06 
629.443 4.9066e-06 
629.883 4.88947e-06 
630.322 4.87572e-06 
630.762 4.86334e-06 
631.201 4.84935e-06 
631.641 4.83255e-06 
632.08 4.81424e-06 
632.52 4.79631e-06 
632.959 4.78026e-06 
633.398 4.76648e-06 
633.838 4.75488e-06 
634.277 4.74557e-06 
634.717 4.73976e-06 
635.156 4.73959e-06 
635.596 4.74767e-06 
636.035 4.76601e-06 
636.475 4.79632e-06 
636.914 4.84186e-06 
637.354 4.90834e-06 
637.793 5.00483e-06 
638.232 5.14494e-06 
638.672 5.35018e-06 
639.111 5.65735e-06 
639.551 6.13329e-06 
639.99 6.91043e-06 
640.43 8.27702e-06 
640.869 1.0909e-05 
641.309 1.63032e-05 
641.748 2.50126e-05 
642.188 2.58681e-05 
642.627 1.75713e-05 
643.066 1.183e-05 
643.506 9.04858e-06 
643.945 7.71678e-06 
644.385 7.07101e-06 
644.824 6.78502e-06 
645.264 6.70903e-06 
645.703 6.76317e-06 
646.143 6.89261e-06 
646.582 7.04758e-06 
647.021 7.17744e-06 
647.461 7.23595e-06 
647.9 7.19321e-06 
648.34 7.04457e-06 
648.779 6.80905e-06 
649.219 6.51923e-06 
649.658 6.20935e-06 
650.098 5.90681e-06 
650.537 5.62912e-06 
650.977 5.38463e-06 
651.416 5.17526e-06 
651.855 4.99931e-06 
652.295 4.85345e-06 
652.734 4.734e-06 
653.174 4.63751e-06 
653.613 4.56111e-06 
654.053 4.50255e-06 
654.492 4.46019e-06 
654.932 4.43303e-06 
655.371 4.42061e-06 
655.811 4.423e-06 
656.25 4.44076e-06 
656.689 4.47488e-06 
657.129 4.52656e-06 
657.568 4.59692e-06 
658.008 4.6863e-06 
658.447 4.7932e-06 
658.887 4.91262e-06 
659.326 5.03448e-06 
659.766 5.14303e-06 
660.205 5.21927e-06 
660.645 5.24672e-06 
661.084 5.21787e-06 
661.523 5.13706e-06 
661.963 5.01781e-06 
662.402 4.87745e-06 
662.842 4.7319e-06 
663.281 4.59275e-06 
663.721 4.46666e-06 
664.16 4.35633e-06 
664.6 4.26188e-06 
665.039 4.18207e-06 
665.479 4.11511e-06 
665.918 4.05915e-06 
666.357 4.01248e-06 
666.797 3.97361e-06 
667.236 3.9413e-06 
667.676 3.91455e-06 
668.115 3.8925e-06 
668.555 3.87448e-06 
668.994 3.85993e-06 
669.434 3.8484e-06 
669.873 3.83953e-06 
670.312 3.83302e-06 
670.752 3.8286e-06 
671.191 3.82606e-06 
671.631 3.82521e-06 
672.07 3.82585e-06 
672.51 3.82781e-06 
672.949 3.83091e-06 
673.389 3.83498e-06 
673.828 3.83984e-06 
674.268 3.84532e-06 
674.707 3.85125e-06 
675.146 3.85746e-06 
675.586 3.86378e-06 
676.025 3.87005e-06 
676.465 3.87611e-06 
676.904 3.88181e-06 
677.344 3.88701e-06 
677.783 3.89161e-06 
678.223 3.89551e-06 
678.662 3.89867e-06 
679.102 3.90109e-06 
679.541 3.9028e-06 
679.98 3.90388e-06 
680.42 3.90446e-06 
680.859 3.90466e-06 
681.299 3.90458e-06 
681.738 3.90432e-06 
682.178 3.90396e-06 
682.617 3.9036e-06 
683.057 3.90328e-06 
683.496 3.90303e-06 
683.936 3.9029e-06 
684.375 3.90289e-06 
684.814 3.90303e-06 
685.254 3.90335e-06 
685.693 3.9039e-06 
686.133 3.90476e-06 
686.572 3.90602e-06 
687.012 3.90782e-06 
687.451 3.91027e-06 
687.891 3.91351e-06 
688.33 3.91764e-06 
688.77 3.92274e-06 
689.209 3.92891e-06 
689.648 3.9362e-06 
690.088 3.94473e-06 
690.527 3.95463e-06 
690.967 3.9661e-06 
691.406 3.97947e-06 
691.846 3.99514e-06 
692.285 4.01368e-06 
692.725 4.03578e-06 
693.164 4.06228e-06 
693.604 4.09423e-06 
694.043 4.13287e-06 
694.482 4.17972e-06 
694.922 4.23659e-06 
695.361 4.30569e-06 
695.801 4.38964e-06 
696.24 4.49162e-06 
696.68 4.61532e-06 
697.119 4.76495e-06 
697.559 4.94497e-06 
697.998 5.15946e-06 
698.438 5.41077e-06 
698.877 5.69723e-06 
699.316 6.00961e-06 
699.756 6.32726e-06 
700.195 6.61637e-06 
700.635 6.8343e-06 
701.074 6.94193e-06 
701.514 6.91886e-06 
701.953 6.77156e-06 
702.393 6.52913e-06 
702.832 6.2311e-06 
703.271 5.91519e-06 
703.711 5.6098e-06 
704.15 5.332e-06 
704.59 5.08936e-06 
705.029 4.88311e-06 
705.469 4.71104e-06 
705.908 4.56955e-06 
706.348 4.45479e-06 
706.787 4.3633e-06 
707.227 4.29221e-06 
707.666 4.23937e-06 
708.105 4.2033e-06 
708.545 4.18318e-06 
708.984 4.1788e-06 
709.424 4.19054e-06 
709.863 4.21925e-06 
710.303 4.26623e-06 
710.742 4.33294e-06 
711.182 4.42054e-06 
711.621 4.52902e-06 
712.061 4.65587e-06 
712.5 4.7941e-06 
712.939 4.93064e-06 
713.379 5.04644e-06 
713.818 5.12029e-06 
714.258 5.13575e-06 
714.697 5.08784e-06 
715.137 4.98448e-06 
715.576 4.84252e-06 
716.016 4.68143e-06 
716.455 4.51811e-06 
716.895 4.3642e-06 
717.334 4.22601e-06 
717.773 4.10578e-06 
718.213 4.00315e-06 
718.652 3.91652e-06 
719.092 3.84381e-06 
719.531 3.78294e-06 
719.971 3.73203e-06 
720.41 3.68951e-06 
720.85 3.65409e-06 
721.289 3.62478e-06 
721.729 3.60087e-06 
722.168 3.58184e-06 
722.607 3.56737e-06 
723.047 3.55732e-06 
723.486 3.55166e-06 
723.926 3.55051e-06 
724.365 3.55411e-06 
724.805 3.56284e-06 
725.244 3.57723e-06 
725.684 3.59795e-06 
726.123 3.6258e-06 
726.562 3.66166e-06 
727.002 3.70629e-06 
727.441 3.75993e-06 
727.881 3.82174e-06 
728.32 3.88882e-06 
728.76 3.95532e-06 
729.199 4.01226e-06 
729.639 4.04904e-06 
730.078 4.05723e-06 
730.518 4.03445e-06 
730.957 3.98572e-06 
731.396 3.92076e-06 
731.836 3.84988e-06 
732.275 3.78096e-06 
732.715 3.71863e-06 
733.154 3.66486e-06 
733.594 3.61993e-06 
734.033 3.58329e-06 
734.473 3.55404e-06 
734.912 3.53134e-06 
735.352 3.51448e-06 
735.791 3.503e-06 
736.23 3.49664e-06 
736.67 3.49509e-06 
737.109 3.49804e-06 
737.549 3.50512e-06 
737.988 3.51586e-06 
738.428 3.52974e-06 
738.867 3.54609e-06 
739.307 3.56425e-06 
739.746 3.58361e-06 
740.186 3.60363e-06 
740.625 3.62387e-06 
741.064 3.64406e-06 
741.504 3.66403e-06 
741.943 3.68357e-06 
742.383 3.70223e-06 
742.822 3.71906e-06 
743.262 3.73277e-06 
743.701 3.74199e-06 
744.141 3.74597e-06 
744.58 3.74517e-06 
745.02 3.74088e-06 
745.459 3.73484e-06 
745.898 3.72848e-06 
746.338 3.72253e-06 
746.777 3.71745e-06 
747.217 3.71378e-06 
747.656 3.71229e-06 
748.096 3.71379e-06 
748.535 3.71877e-06 
748.975 3.7275e-06 
749.414 3.74018e-06 
749.854 3.75652e-06 
750.293 3.77581e-06 
750.732 3.79695e-06 
751.172 3.81916e-06 
751.611 3.84226e-06 
752.051 3.86644e-06 
752.49 3.89205e-06 
752.93 3.91931e-06 
753.369 3.94824e-06 
753.809 3.97885e-06 
754.248 4.01133e-06 
754.688 4.04546e-06 
755.127 4.07963e-06 
755.566 4.11003e-06 
756.006 4.13131e-06 
756.445 4.14024e-06 
756.885 4.13561e-06 
757.324 4.11814e-06 
757.764 4.09007e-06 
758.203 4.05393e-06 
758.643 4.01273e-06 
759.082 3.96916e-06 
759.521 3.92597e-06 
759.961 3.88661e-06 
760.4 3.85506e-06 
760.84 3.83483e-06 
761.279 3.82935e-06 
761.719 3.84293e-06 
762.158 3.88226e-06 
762.598 3.95778e-06 
763.037 4.08548e-06 
763.477 4.2919e-06 
763.916 4.62502e-06 
764.355 5.17809e-06 
764.795 6.14387e-06 
765.234 7.95455e-06 
765.674 1.16274e-05 
766.113 1.9094e-05 
766.553 2.80299e-05 
766.992 2.48974e-05 
767.432 1.58771e-05 
767.871 9.8439e-06 
768.311 6.79972e-06 
768.75 5.207e-06 
769.189 4.28484e-06 
769.629 3.69835e-06 
770.068 3.2972e-06 
770.508 3.0088e-06 
770.947 2.7939e-06 
771.387 2.6288e-06 
771.826 2.49868e-06 
772.266 2.39555e-06 
772.705 2.31731e-06 
773.145 2.26559e-06 
773.584 2.24348e-06 
774.023 2.25306e-06 
774.463 2.29847e-06 
774.902 2.38889e-06 
775.342 2.54057e-06 
775.781 2.77919e-06 
776.221 3.1444e-06 
776.66 3.70224e-06 
777.1 4.56963e-06 
777.539 5.96891e-06 
777.979 8.36336e-06 
778.418 1.28067e-05 
778.857 2.17739e-05 
779.297 3.92158e-05 
779.736 5.49178e-05 
780.176 4.40136e-05 
780.615 2.5978e-05 
781.055 1.49926e-05 
781.494 9.54596e-06 
781.934 6.71229e-06 
782.373 5.10707e-06 
782.812 4.12114e-06 
783.252 3.46438e-06 
783.691 2.98773e-06 
784.131 2.61326e-06 
784.57 2.30241e-06 
785.01 2.03775e-06 
785.449 1.81143e-06 
785.889 1.61884e-06 
786.328 1.45592e-06 
786.768 1.31859e-06 
787.207 1.20293e-06 
787.646 1.10531e-06 
788.086 1.02261e-06 
788.525 9.52209e-07 
788.965 8.9193e-07 
789.404 8.40016e-07 
789.844 7.9504e-07 
790.283 7.55848e-07 
790.723 7.21504e-07 
791.162 6.91249e-07 
791.602 6.6446e-07 
792.041 6.40629e-07 
792.48 6.19336e-07 
792.92 6.00232e-07 
793.359 5.83025e-07 
793.799 5.67473e-07 
794.238 5.53371e-07 
794.678 5.40543e-07 
795.117 5.28843e-07 
795.557 5.18144e-07 
795.996 5.08338e-07 
796.436 4.99332e-07 
796.875 4.91046e-07 
797.314 4.83412e-07 
797.754 4.7637e-07 
798.193 4.69869e-07 
798.633 4.63863e-07 
799.072 4.58314e-07 
799.512 4.53187e-07 
799.951 4.48453e-07 
800.391 4.44085e-07 
800.83 4.40062e-07 
801.27 4.36364e-07 
801.709 4.32974e-07 
802.148 4.29879e-07 
802.588 4.27067e-07 
803.027 4.24526e-07 
803.467 4.22248e-07 
803.906 4.20224e-07 
804.346 4.18449e-07 
804.785 4.16914e-07 
805.225 4.15617e-07 
805.664 4.14552e-07 
806.104 4.13713e-07 
806.543 4.13095e-07 
806.982 4.1269e-07 
807.422 4.12487e-07 
807.861 4.12472e-07 
808.301 4.12628e-07 
808.74 4.12933e-07 
809.18 4.13362e-07 
809.619 4.13887e-07 
810.059 4.1448e-07 
810.498 4.15107e-07 
810.938 4.15739e-07 
811.377 4.16341e-07 
811.816 4.16883e-07 
812.256 4.17331e-07 
812.695 4.17655e-07 
813.135 4.17825e-07 
813.574 4.17817e-07 
814.014 4.17614e-07 
814.453 4.17204e-07 
814.893 4.16589e-07 
815.332 4.15779e-07 
815.771 4.14789e-07 
816.211 4.13644e-07 
816.65 4.12367e-07 
817.09 4.10983e-07 
817.529 4.09516e-07 
817.969 4.07986e-07 
818.408 4.06409e-07 
818.848 4.04797e-07 
819.287 4.03159e-07 
819.727 4.01499e-07 
820.166 3.99823e-07 
820.605 3.98136e-07 
821.045 3.96449e-07 
821.484 3.9478e-07 
821.924 3.93154e-07 
822.363 3.91605e-07 
822.803 3.90171e-07 
823.242 3.88894e-07 
823.682 3.87814e-07 
824.121 3.86972e-07 
824.561 3.86401e-07 
825 3.86133e-07 
825.439 3.86198e-07 
825.879 3.86629e-07 
826.318 3.87469e-07 
826.758 3.88775e-07 
827.197 3.90626e-07 
827.637 3.93122e-07 
828.076 3.96387e-07 
828.516 4.00574e-07 
828.955 4.05868e-07 
829.395 4.12495e-07 
829.834 4.20727e-07 
830.273 4.30897e-07 
830.713 4.43411e-07 
831.152 4.5876e-07 
831.592 4.77541e-07 
832.031 5.00474e-07 
832.471 5.28414e-07 
832.91 5.62341e-07 
833.35 6.03312e-07 
833.789 6.5233e-07 
834.229 7.10055e-07 
834.668 7.76278e-07 
835.107 8.49101e-07 
835.547 9.23922e-07 
835.986 9.92755e-07 
836.426 1.04491e-06 
836.865 1.06988e-06 
837.305 1.06173e-06 
837.744 1.02206e-06 
838.184 9.59127e-07 
838.623 8.83919e-07 
839.062 8.06203e-07 
839.502 7.32571e-07 
839.941 6.66437e-07 
840.381 6.08915e-07 
840.82 5.598e-07 
841.26 5.18254e-07 
841.699 4.83234e-07 
842.139 4.53711e-07 
842.578 4.28761e-07 
843.018 4.07593e-07 
843.457 3.89552e-07 
843.896 3.74096e-07 
844.336 3.60787e-07 
844.775 3.49266e-07 
845.215 3.39243e-07 
845.654 3.3048e-07 
846.094 3.22782e-07 
846.533 3.1599e-07 
846.973 3.09973e-07 
847.412 3.0462e-07 
847.852 2.9984e-07 
848.291 2.95558e-07 
848.73 2.91708e-07 
849.17 2.88235e-07 
849.609 2.85095e-07 
850.049 2.82248e-07 
850.488 2.7966e-07 
850.928 2.77301e-07 
851.367 2.75146e-07 
851.807 2.73175e-07 
852.246 2.71367e-07 
852.686 2.69707e-07 
853.125 2.6818e-07 
853.564 2.66772e-07 
854.004 2.65474e-07 
854.443 2.64274e-07 
854.883 2.63165e-07 
855.322 2.62138e-07 
855.762 2.61186e-07 
856.201 2.60303e-07 
856.641 2.59484e-07 
857.08 2.58723e-07 
857.52 2.58016e-07 
857.959 2.57359e-07 
858.398 2.56748e-07 
858.838 2.56179e-07 
859.277 2.55651e-07 
859.717 2.55159e-07 
860.156 2.54702e-07 
860.596 2.54277e-07 
861.035 2.53882e-07 
861.475 2.53515e-07 
861.914 2.53175e-07 
862.354 2.52859e-07 
862.793 2.52567e-07 
863.232 2.52297e-07 
863.672 2.52047e-07 
864.111 2.51816e-07 
864.551 2.51605e-07 
864.99 2.5141e-07 
865.43 2.51232e-07 
865.869 2.51069e-07 
866.309 2.50921e-07 
866.748 2.50788e-07 
867.188 2.50667e-07 
867.627 2.50559e-07 
868.066 2.50464e-07 
868.506 2.50379e-07 
868.945 2.50306e-07 
869.385 2.50243e-07 
869.824 2.5019e-07 
870.264 2.50147e-07 
870.703 2.50113e-07 
871.143 2.50087e-07 
871.582 2.5007e-07 
872.021 2.50061e-07 
872.461 2.5006e-07 
872.9 2.50066e-07 
873.34 2.50079e-07 
873.779 2.50099e-07 
874.219 2.50125e-07 
874.658 2.50158e-07 
875.098 2.50196e-07 
875.537 2.50241e-07 
875.977 2.50291e-07 
876.416 2.50347e-07 
876.855 2.50407e-07 
877.295 2.50473e-07 
877.734 2.50544e-07 
878.174 2.50619e-07 
878.613 2.50699e-07 
879.053 2.50783e-07 
879.492 2.50872e-07 
879.932 2.50964e-07 
880.371 2.51061e-07 
880.811 2.51161e-07 
881.25 2.51266e-07 
881.689 2.51374e-07 
882.129 2.51485e-07 
882.568 2.516e-07 
883.008 2.51717e-07 
883.447 2.51839e-07 
883.887 2.51963e-07 
884.326 2.5209e-07 
884.766 2.52221e-07 
885.205 2.52354e-07 
885.645 2.5249e-07 
886.084 2.52629e-07 
886.523 2.5277e-07 
886.963 2.52915e-07 
887.402 2.53061e-07 
887.842 2.5321e-07 
888.281 2.53362e-07 
888.721 2.53516e-07 
889.16 2.53672e-07 
889.6 2.5383e-07 
890.039 2.53991e-07 
890.479 2.54154e-07 
890.918 2.54319e-07 
891.357 2.54486e-07 
891.797 2.54655e-07 
892.236 2.54826e-07 
892.676 2.54999e-07 
893.115 2.55174e-07 
893.555 2.55351e-07 
893.994 2.5553e-07 
894.434 2.55711e-07 
894.873 2.55893e-07 
895.312 2.56077e-07 
895.752 2.56264e-07 
896.191 2.56451e-07 
896.631 2.5664e-07 
897.07 2.56831e-07 
897.51 2.57024e-07 
897.949 2.57218e-07 
898.389 2.57414e-07 
898.828 2.57611e-07 
899.268 2.5781e-07 
899.707 2.58011e-07 
900.146 2.58213e-07 
900.586 2.58416e-07 
901.025 2.5862e-07 
901.465 2.58826e-07 
901.904 2.59034e-07 
902.344 2.59243e-07 
902.783 2.59453e-07 
903.223 2.59664e-07 
903.662 2.59877e-07 
904.102 2.60091e-07 
904.541 2.60306e-07 
904.98 2.60522e-07 
905.42 2.6074e-07 
905.859 2.60959e-07 
906.299 2.61179e-07 
906.738 2.614e-07 
907.178 2.61622e-07 
907.617 2.61845e-07 
908.057 2.62069e-07 
908.496 2.62294e-07 
908.936 2.62521e-07 
909.375 2.62748e-07 
909.814 2.62976e-07 
910.254 2.63206e-07 
910.693 2.63436e-07 
911.133 2.63667e-07 
911.572 2.63899e-07 
912.012 2.64132e-07 
912.451 2.64366e-07 
912.891 2.646e-07 
913.33 2.64836e-07 
913.77 2.65072e-07 
914.209 2.6531e-07 
914.648 2.65547e-07 
915.088 2.65786e-07 
915.527 2.66026e-07 
915.967 2.66266e-07 
916.406 2.66507e-07 
916.846 2.66749e-07 
917.285 2.66992e-07 
917.725 2.67235e-07 
918.164 2.67479e-07 
918.604 2.67724e-07 
919.043 2.67969e-07 
919.482 2.68216e-07 
919.922 2.68462e-07 
920.361 2.6871e-07 
920.801 2.68958e-07 
921.24 2.69207e-07 
921.68 2.69457e-07 
922.119 2.69707e-07 
922.559 2.69958e-07 
922.998 2.70209e-07 
923.438 2.70462e-07 
923.877 2.70715e-07 
924.316 2.70968e-07 
924.756 2.71222e-07 
925.195 2.71477e-07 
925.635 2.71733e-07 
926.074 2.71989e-07 
926.514 2.72246e-07 
926.953 2.72503e-07 
927.393 2.72761e-07 
927.832 2.7302e-07 
928.271 2.73279e-07 
928.711 2.73539e-07 
929.15 2.738e-07 
929.59 2.74061e-07 
930.029 2.74323e-07 
930.469 2.74585e-07 
930.908 2.74849e-07 
931.348 2.75112e-07 
931.787 2.75377e-07 
932.227 2.75641e-07 
932.666 2.75907e-07 
933.105 2.76173e-07 
933.545 2.7644e-07 
933.984 2.76707e-07 
934.424 2.76975e-07 
934.863 2.77243e-07 
935.303 2.77512e-07 
935.742 2.77781e-07 
936.182 2.78051e-07 
936.621 2.78322e-07 
937.061 2.78593e-07 
937.5 2.78864e-07 
937.939 2.79136e-07 
938.379 2.79409e-07 
938.818 2.79682e-07 
939.258 2.79955e-07 
939.697 2.80229e-07 
940.137 2.80504e-07 
940.576 2.80779e-07 
941.016 2.81054e-07 
941.455 2.8133e-07 
941.895 2.81606e-07 
942.334 2.81882e-07 
942.773 2.82159e-07 
943.213 2.82437e-07 
943.652 2.82714e-07 
944.092 2.82993e-07 
944.531 2.83271e-07 
944.971 2.8355e-07 
945.41 2.83829e-07 
945.85 2.84109e-07 
946.289 2.84388e-07 
946.729 2.84668e-07 
947.168 2.84949e-07 
947.607 2.8523e-07 
948.047 2.85511e-07 
948.486 2.85793e-07 
948.926 2.86074e-07 
949.365 2.86356e-07 
949.805 2.86639e-07 
950.244 2.86921e-07 
950.684 2.87204e-07 
951.123 2.87487e-07 
951.562 2.87771e-07 
952.002 2.88055e-07 
952.441 2.88339e-07 
952.881 2.88623e-07 
953.32 2.88908e-07 
953.76 2.89193e-07 
954.199 2.89478e-07 
954.639 2.89764e-07 
955.078 2.9005e-07 
955.518 2.90336e-07 
955.957 2.90622e-07 
956.396 2.90909e-07 
956.836 2.91196e-07 
957.275 2.91484e-07 
957.715 2.91771e-07 
958.154 2.92059e-07 
958.594 2.92348e-07 
959.033 2.92636e-07 
959.473 2.92925e-07 
959.912 2.93214e-07 
960.352 2.93504e-07 
960.791 2.93794e-07 
961.23 2.94084e-07 
961.67 2.94374e-07 
962.109 2.94665e-07 
962.549 2.94957e-07 
962.988 2.95248e-07 
963.428 2.9554e-07 
963.867 2.95832e-07 
964.307 2.96124e-07 
964.746 2.96417e-07 
965.186 2.9671e-07 
965.625 2.97003e-07 
966.064 2.97297e-07 
966.504 2.97591e-07 
966.943 2.97885e-07 
967.383 2.98179e-07 
967.822 2.98474e-07 
968.262 2.98769e-07 
968.701 2.99064e-07 
969.141 2.9936e-07 
969.58 2.99656e-07 
970.02 2.99952e-07 
970.459 3.00248e-07 
970.898 3.00544e-07 
971.338 3.00841e-07 
971.777 3.01138e-07 
972.217 3.01435e-07 
972.656 3.01732e-07 
973.096 3.0203e-07 
973.535 3.02328e-07 
973.975 3.02626e-07 
974.414 3.02924e-07 
974.854 3.03222e-07 
975.293 3.0352e-07 
975.732 3.03819e-07 
976.172 3.04117e-07 
976.611 3.04416e-07 
977.051 3.04715e-07 
977.49 3.05014e-07 
977.93 3.05313e-07 
978.369 3.05612e-07 
978.809 3.05911e-07 
979.248 3.06211e-07 
979.688 3.0651e-07 
980.127 3.0681e-07 
980.566 3.07109e-07 
981.006 3.07409e-07 
981.445 3.07709e-07 
981.885 3.08009e-07 
982.324 3.08309e-07 
982.764 3.08609e-07 
983.203 3.08909e-07 
983.643 3.09209e-07 
984.082 3.09509e-07 
984.521 3.0981e-07 
984.961 3.1011e-07 
985.4 3.10411e-07 
985.84 3.10712e-07 
986.279 3.11012e-07 
986.719 3.11313e-07 
987.158 3.11614e-07 
987.598 3.11915e-07 
988.037 3.12216e-07 
988.477 3.12518e-07 
988.916 3.12819e-07 
989.355 3.1312e-07 
989.795 3.13422e-07 
990.234 3.13724e-07 
990.674 3.14026e-07 
991.113 3.14328e-07 
991.553 3.1463e-07 
991.992 3.14932e-07 
992.432 3.15234e-07 
992.871 3.15537e-07 
993.311 3.15839e-07 
993.75 3.16142e-07 
994.189 3.16445e-07 
994.629 3.16748e-07 
995.068 3.17051e-07 
995.508 3.17355e-07 
995.947 3.17658e-07 
996.387 3.17962e-07 
996.826 3.18265e-07 
997.266 3.18569e-07 
997.705 3.18873e-07 
998.145 3.19177e-07 
998.584 3.19481e-07 
999.023 3.19785e-07 
999.463 3.20089e-07 
999.902 3.20394e-07 
1000.34 3.20698e-07 
1000.78 3.21003e-07 
1001.22 3.21308e-07 
1001.66 3.21612e-07 
1002.1 3.21917e-07 
1002.54 3.22222e-07 
1002.98 3.22526e-07 
1003.42 3.22831e-07 
1003.86 3.23136e-07 
1004.3 3.23441e-07 
1004.74 3.23746e-07 
1005.18 3.24051e-07 
1005.62 3.24355e-07 
1006.05 3.2466e-07 
1006.49 3.24965e-07 
1006.93 3.2527e-07 
1007.37 3.25575e-07 
1007.81 3.25879e-07 
1008.25 3.26184e-07 
1008.69 3.26489e-07 
1009.13 3.26793e-07 
1009.57 3.27098e-07 
1010.01 3.27402e-07 
1010.45 3.27707e-07 
1010.89 3.28011e-07 
1011.33 3.28315e-07 
1011.77 3.28619e-07 
1012.21 3.28923e-07 
1012.65 3.29228e-07 
1013.09 3.29531e-07 
1013.53 3.29835e-07 
1013.96 3.30139e-07 
1014.4 3.30443e-07 
1014.84 3.30747e-07 
1015.28 3.3105e-07 
1015.72 3.31354e-07 
1016.16 3.31657e-07 
1016.6 3.31961e-07 
1017.04 3.32264e-07 
1017.48 3.32568e-07 
1017.92 3.32871e-07 
1018.36 3.33174e-07 
1018.8 3.33477e-07 
1019.24 3.33781e-07 
1019.68 3.34084e-07 
1020.12 3.34387e-07 
1020.56 3.3469e-07 
1021 3.34994e-07 
1021.44 3.35297e-07 
1021.88 3.356e-07 
1022.31 3.35903e-07 
