#energy geo_1 
600 3.8131e-06 
600.439 3.81716e-06 
600.879 3.82121e-06 
601.318 3.82524e-06 
601.758 3.82926e-06 
602.197 3.83327e-06 
602.637 3.83728e-06 
603.076 3.84128e-06 
603.516 3.84528e-06 
603.955 3.84928e-06 
604.395 3.85329e-06 
604.834 3.85731e-06 
605.273 3.86134e-06 
605.713 3.86541e-06 
606.152 3.8695e-06 
606.592 3.87364e-06 
607.031 3.87783e-06 
607.471 3.88208e-06 
607.91 3.88641e-06 
608.35 3.89084e-06 
608.789 3.89537e-06 
609.229 3.90004e-06 
609.668 3.90487e-06 
610.107 3.90989e-06 
610.547 3.91512e-06 
610.986 3.92061e-06 
611.426 3.9264e-06 
611.865 3.93255e-06 
612.305 3.9391e-06 
612.744 3.94614e-06 
613.184 3.95373e-06 
613.623 3.962e-06 
614.062 3.97104e-06 
614.502 3.981e-06 
614.941 3.99205e-06 
615.381 4.00439e-06 
615.82 4.01826e-06 
616.26 4.03397e-06 
616.699 4.05186e-06 
617.139 4.0724e-06 
617.578 4.09612e-06 
618.018 4.12369e-06 
618.457 4.15595e-06 
618.896 4.1939e-06 
619.336 4.23874e-06 
619.775 4.29188e-06 
620.215 4.35491e-06 
620.654 4.42942e-06 
621.094 4.51667e-06 
621.533 4.61699e-06 
621.973 4.72861e-06 
622.412 4.84619e-06 
622.852 4.95937e-06 
623.291 5.05282e-06 
623.73 5.10949e-06 
624.17 5.1171e-06 
624.609 5.07429e-06 
625.049 4.9913e-06 
625.488 4.88474e-06 
625.928 4.77071e-06 
626.367 4.66075e-06 
626.807 4.56124e-06 
627.246 4.4746e-06 
627.686 4.40088e-06 
628.125 4.33896e-06 
628.564 4.28729e-06 
629.004 4.24425e-06 
629.443 4.2084e-06 
629.883 4.17849e-06 
630.322 4.15346e-06 
630.762 4.13245e-06 
631.201 4.11476e-06 
631.641 4.09979e-06 
632.08 4.0871e-06 
632.52 4.07629e-06 
632.959 4.06706e-06 
633.398 4.05914e-06 
633.838 4.05232e-06 
634.277 4.04642e-06 
634.717 4.0413e-06 
635.156 4.03683e-06 
635.596 4.0329e-06 
636.035 4.02942e-06 
636.475 4.02633e-06 
636.914 4.02355e-06 
637.354 4.02103e-06 
637.793 4.01872e-06 
638.232 4.01658e-06 
638.672 4.01457e-06 
639.111 4.01266e-06 
639.551 4.01083e-06 
639.99 4.00905e-06 
640.43 4.00731e-06 
640.869 4.00559e-06 
641.309 4.00387e-06 
641.748 4.00215e-06 
642.188 4.00042e-06 
642.627 3.99868e-06 
643.066 3.99692e-06 
643.506 3.99515e-06 
643.945 3.99338e-06 
644.385 3.9916e-06 
644.824 3.98985e-06 
645.264 3.98812e-06 
645.703 3.98645e-06 
646.143 3.98486e-06 
646.582 3.98339e-06 
647.021 3.98206e-06 
647.461 3.98095e-06 
647.9 3.98009e-06 
648.34 3.97958e-06 
648.779 3.97948e-06 
649.219 3.97991e-06 
649.658 3.981e-06 
650.098 3.9829e-06 
650.537 3.98581e-06 
650.977 3.98995e-06 
651.416 3.99564e-06 
651.855 4.00327e-06 
652.295 4.01331e-06 
652.734 4.02641e-06 
653.174 4.04341e-06 
653.613 4.06545e-06 
654.053 4.09414e-06 
654.492 4.13169e-06 
654.932 4.18138e-06 
655.371 4.24812e-06 
655.811 4.33969e-06 
656.25 4.46891e-06 
656.689 4.65827e-06 
657.129 4.95011e-06 
657.568 5.43111e-06 
658.008 6.29511e-06 
658.447 7.99877e-06 
658.887 1.13647e-05 
659.326 1.49325e-05 
659.766 1.27835e-05 
660.205 9.11758e-06 
660.645 7.05683e-06 
661.084 6.05426e-06 
661.523 5.52797e-06 
661.963 5.21168e-06 
662.402 4.98979e-06 
662.842 4.81258e-06 
663.281 4.66074e-06 
663.721 4.52831e-06 
664.16 4.41378e-06 
664.6 4.31627e-06 
665.039 4.23435e-06 
665.479 4.16616e-06 
665.918 4.10967e-06 
666.357 4.06296e-06 
666.797 4.0243e-06 
667.236 3.99227e-06 
667.676 3.96566e-06 
668.115 3.94351e-06 
668.555 3.92502e-06 
668.994 3.90957e-06 
669.434 3.89665e-06 
669.873 3.88584e-06 
670.312 3.87681e-06 
670.752 3.86928e-06 
671.191 3.86303e-06 
671.631 3.85788e-06 
672.07 3.85367e-06 
672.51 3.85026e-06 
672.949 3.84757e-06 
673.389 3.84549e-06 
673.828 3.84395e-06 
674.268 3.84288e-06 
674.707 3.84223e-06 
675.146 3.84195e-06 
675.586 3.842e-06 
676.025 3.84234e-06 
676.465 3.84295e-06 
676.904 3.84379e-06 
677.344 3.84485e-06 
677.783 3.84609e-06 
678.223 3.84751e-06 
678.662 3.84909e-06 
679.102 3.85081e-06 
679.541 3.85266e-06 
679.98 3.85463e-06 
680.42 3.85671e-06 
680.859 3.85889e-06 
681.299 3.86116e-06 
681.738 3.86351e-06 
682.178 3.86595e-06 
682.617 3.86845e-06 
683.057 3.87103e-06 
683.496 3.87366e-06 
683.936 3.87635e-06 
684.375 3.8791e-06 
684.814 3.88189e-06 
685.254 3.88473e-06 
685.693 3.88762e-06 
686.133 3.89054e-06 
686.572 3.8935e-06 
687.012 3.8965e-06 
687.451 3.89952e-06 
687.891 3.90258e-06 
688.33 3.90567e-06 
688.77 3.90879e-06 
689.209 3.91193e-06 
689.648 3.91509e-06 
690.088 3.91827e-06 
690.527 3.92148e-06 
690.967 3.92471e-06 
691.406 3.92795e-06 
691.846 3.93121e-06 
692.285 3.93449e-06 
692.725 3.93778e-06 
693.164 3.94109e-06 
693.604 3.94441e-06 
694.043 3.94774e-06 
694.482 3.95109e-06 
694.922 3.95444e-06 
695.361 3.95781e-06 
695.801 3.96118e-06 
696.24 3.96457e-06 
696.68 3.96796e-06 
697.119 3.97137e-06 
697.559 3.97478e-06 
697.998 3.9782e-06 
698.438 3.98162e-06 
698.877 3.98506e-06 
699.316 3.9885e-06 
699.756 3.99195e-06 
700.195 3.9954e-06 
700.635 3.99886e-06 
701.074 4.00233e-06 
701.514 4.00581e-06 
701.953 4.00929e-06 
702.393 4.01278e-06 
702.832 4.01629e-06 
703.271 4.0198e-06 
703.711 4.02332e-06 
704.15 4.02685e-06 
704.59 4.0304e-06 
705.029 4.03396e-06 
705.469 4.03753e-06 
705.908 4.04113e-06 
706.348 4.04474e-06 
706.787 4.04838e-06 
707.227 4.05205e-06 
707.666 4.05574e-06 
708.105 4.05947e-06 
708.545 4.06323e-06 
708.984 4.06704e-06 
709.424 4.0709e-06 
709.863 4.07482e-06 
710.303 4.0788e-06 
710.742 4.08286e-06 
711.182 4.08701e-06 
711.621 4.09126e-06 
712.061 4.09563e-06 
712.5 4.10013e-06 
712.939 4.1048e-06 
713.379 4.10965e-06 
713.818 4.11472e-06 
714.258 4.12004e-06 
714.697 4.12568e-06 
715.137 4.13167e-06 
715.576 4.1381e-06 
716.016 4.14505e-06 
716.455 4.15261e-06 
716.895 4.16093e-06 
717.334 4.17016e-06 
717.773 4.18049e-06 
718.213 4.19215e-06 
718.652 4.20542e-06 
719.092 4.22062e-06 
719.531 4.23805e-06 
719.971 4.25802e-06 
720.41 4.28063e-06 
720.85 4.30568e-06 
721.289 4.3323e-06 
721.729 4.3587e-06 
722.168 4.38202e-06 
722.607 4.39886e-06 
723.047 4.40639e-06 
723.486 4.40368e-06 
723.926 4.39217e-06 
724.365 4.37496e-06 
724.805 4.35538e-06 
725.244 4.33605e-06 
725.684 4.31854e-06 
726.123 4.30355e-06 
726.562 4.29121e-06 
727.002 4.28134e-06 
727.441 4.27366e-06 
727.881 4.26784e-06 
728.32 4.26357e-06 
728.76 4.2606e-06 
729.199 4.2587e-06 
729.639 4.25768e-06 
730.078 4.25739e-06 
730.518 4.25772e-06 
730.957 4.25856e-06 
731.396 4.25983e-06 
731.836 4.26146e-06 
732.275 4.2634e-06 
732.715 4.26561e-06 
733.154 4.26804e-06 
733.594 4.27067e-06 
734.033 4.27347e-06 
734.473 4.27641e-06 
734.912 4.27949e-06 
735.352 4.28268e-06 
735.791 4.28596e-06 
736.23 4.28934e-06 
736.67 4.29279e-06 
737.109 4.29631e-06 
737.549 4.29989e-06 
737.988 4.30353e-06 
738.428 4.30721e-06 
738.867 4.31094e-06 
739.307 4.3147e-06 
739.746 4.31849e-06 
740.186 4.32231e-06 
740.625 4.32615e-06 
741.064 4.33002e-06 
741.504 4.3339e-06 
741.943 4.33779e-06 
742.383 4.34169e-06 
742.822 4.3456e-06 
743.262 4.34951e-06 
743.701 4.35341e-06 
744.141 4.35732e-06 
744.58 4.36121e-06 
745.02 4.3651e-06 
745.459 4.36897e-06 
745.898 4.37283e-06 
746.338 4.37666e-06 
746.777 4.38047e-06 
747.217 4.38425e-06 
747.656 4.38801e-06 
748.096 4.39172e-06 
748.535 4.3954e-06 
748.975 4.39903e-06 
749.414 4.40262e-06 
749.854 4.40616e-06 
750.293 4.40964e-06 
750.732 4.41306e-06 
751.172 4.41641e-06 
751.611 4.4197e-06 
752.051 4.42291e-06 
752.49 4.42604e-06 
752.93 4.42909e-06 
753.369 4.43204e-06 
753.809 4.4349e-06 
754.248 4.43766e-06 
754.688 4.44031e-06 
755.127 4.44284e-06 
755.566 4.44526e-06 
756.006 4.44755e-06 
756.445 4.44971e-06 
756.885 4.45174e-06 
757.324 4.45361e-06 
757.764 4.45534e-06 
758.203 4.45691e-06 
758.643 4.45833e-06 
759.082 4.45957e-06 
759.521 4.46064e-06 
759.961 4.46152e-06 
760.4 4.46223e-06 
760.84 4.46274e-06 
761.279 4.46306e-06 
761.719 4.46317e-06 
762.158 4.46309e-06 
762.598 4.46279e-06 
763.037 4.46229e-06 
763.477 4.46157e-06 
763.916 4.46063e-06 
764.355 4.45948e-06 
764.795 4.45812e-06 
765.234 4.45654e-06 
765.674 4.45476e-06 
766.113 4.45276e-06 
766.553 4.45057e-06 
766.992 4.44819e-06 
767.432 4.44563e-06 
767.871 4.44291e-06 
768.311 4.44003e-06 
768.75 4.43703e-06 
769.189 4.43393e-06 
769.629 4.43076e-06 
770.068 4.42757e-06 
770.508 4.42437e-06 
770.947 4.42123e-06 
771.387 4.41822e-06 
771.826 4.4154e-06 
772.266 4.41288e-06 
772.705 4.41074e-06 
773.145 4.40913e-06 
773.584 4.4082e-06 
774.023 4.40815e-06 
774.463 4.40923e-06 
774.902 4.41172e-06 
775.342 4.41601e-06 
775.781 4.4226e-06 
776.221 4.43213e-06 
776.66 4.44541e-06 
777.1 4.46358e-06 
777.539 4.48815e-06 
777.979 4.52127e-06 
778.418 4.566e-06 
778.857 4.62685e-06 
779.297 4.71071e-06 
779.736 4.82854e-06 
780.176 4.99855e-06 
780.615 5.25291e-06 
781.055 5.65218e-06 
781.494 6.32002e-06 
781.934 7.53152e-06 
782.373 9.93365e-06 
782.812 1.47442e-05 
783.252 2.04268e-05 
783.691 1.85501e-05 
784.131 1.29399e-05 
784.57 9.16155e-06 
785.01 7.27978e-06 
785.449 6.31533e-06 
785.889 5.76756e-06 
786.328 5.41903e-06 
786.768 5.17256e-06 
787.207 4.9838e-06 
787.646 4.8325e-06 
788.086 4.70884e-06 
788.525 4.60722e-06 
788.965 4.52362e-06 
789.404 4.45477e-06 
789.844 4.39791e-06 
790.283 4.35074e-06 
790.723 4.31137e-06 
791.162 4.27826e-06 
791.602 4.25018e-06 
792.041 4.22617e-06 
792.48 4.20544e-06 
792.92 4.18735e-06 
793.359 4.17141e-06 
793.799 4.1572e-06 
794.238 4.14441e-06 
794.678 4.13274e-06 
795.117 4.12199e-06 
795.557 4.11195e-06 
795.996 4.10247e-06 
796.436 4.09342e-06 
796.875 4.08469e-06 
797.314 4.07617e-06 
797.754 4.06779e-06 
798.193 4.05946e-06 
798.633 4.05114e-06 
799.072 4.04276e-06 
799.512 4.03427e-06 
799.951 4.02562e-06 
800.391 4.01678e-06 
800.83 4.00773e-06 
801.27 3.99844e-06 
801.709 3.98887e-06 
802.148 3.97899e-06 
802.588 3.96881e-06 
803.027 3.9583e-06 
803.467 3.94747e-06 
803.906 3.9363e-06 
804.346 3.92478e-06 
804.785 3.91294e-06 
805.225 3.90077e-06 
805.664 3.8883e-06 
806.104 3.87554e-06 
806.543 3.86251e-06 
806.982 3.84926e-06 
807.422 3.83584e-06 
807.861 3.82231e-06 
808.301 3.80872e-06 
808.74 3.79515e-06 
809.18 3.78172e-06 
809.619 3.76856e-06 
810.059 3.75582e-06 
810.498 3.74366e-06 
810.938 3.73231e-06 
811.377 3.72206e-06 
811.816 3.71324e-06 
812.256 3.70628e-06 
812.695 3.70168e-06 
813.135 3.70013e-06 
813.574 3.70249e-06 
814.014 3.70989e-06 
814.453 3.7238e-06 
814.893 3.7462e-06 
815.332 3.77982e-06 
815.771 3.82847e-06 
816.211 3.89762e-06 
816.65 3.99534e-06 
817.09 4.13389e-06 
817.529 4.33271e-06 
817.969 4.62395e-06 
818.408 5.06383e-06 
818.848 5.7569e-06 
819.287 6.91313e-06 
819.727 8.99201e-06 
820.166 1.30692e-05 
820.605 2.14053e-05 
821.045 3.36289e-05 
821.484 3.39916e-05 
821.924 2.30729e-05 
822.363 1.40761e-05 
822.803 9.41399e-06 
823.242 7.04709e-06 
823.682 5.73861e-06 
824.121 4.95218e-06 
824.561 4.44645e-06 
825 4.10345e-06 
825.439 3.86076e-06 
825.879 3.68308e-06 
826.318 3.5493e-06 
826.758 3.44622e-06 
827.197 3.36522e-06 
827.637 3.30051e-06 
828.076 3.24808e-06 
828.516 3.20508e-06 
828.955 3.16943e-06 
829.395 3.1396e-06 
829.834 3.11445e-06 
830.273 3.0931e-06 
830.713 3.07485e-06 
831.152 3.05918e-06 
831.592 3.04567e-06 
832.031 3.03396e-06 
832.471 3.02379e-06 
832.91 3.01493e-06 
833.35 3.0072e-06 
833.789 3.00044e-06 
834.229 2.99452e-06 
834.668 2.98935e-06 
835.107 2.98482e-06 
835.547 2.98086e-06 
835.986 2.97741e-06 
836.426 2.97441e-06 
836.865 2.9718e-06 
837.305 2.96956e-06 
837.744 2.96763e-06 
838.184 2.96599e-06 
838.623 2.96462e-06 
839.062 2.96348e-06 
839.502 2.96255e-06 
839.941 2.96183e-06 
840.381 2.96127e-06 
840.82 2.96089e-06 
841.26 2.96064e-06 
841.699 2.96054e-06 
842.139 2.96057e-06 
842.578 2.96071e-06 
843.018 2.96096e-06 
843.457 2.96131e-06 
843.896 2.96175e-06 
844.336 2.96228e-06 
844.775 2.96289e-06 
845.215 2.96358e-06 
845.654 2.96433e-06 
846.094 2.96515e-06 
846.533 2.96603e-06 
846.973 2.96697e-06 
847.412 2.96797e-06 
847.852 2.96901e-06 
848.291 2.9701e-06 
848.73 2.97124e-06 
849.17 2.97242e-06 
849.609 2.97365e-06 
850.049 2.97491e-06 
850.488 2.97621e-06 
850.928 2.97754e-06 
851.367 2.9789e-06 
851.807 2.9803e-06 
852.246 2.98173e-06 
852.686 2.98318e-06 
853.125 2.98466e-06 
853.564 2.98617e-06 
854.004 2.98771e-06 
854.443 2.98927e-06 
854.883 2.99085e-06 
855.322 2.99245e-06 
855.762 2.99408e-06 
856.201 2.99572e-06 
856.641 2.99739e-06 
857.08 2.99907e-06 
857.52 3.00077e-06 
857.959 3.00249e-06 
858.398 3.00423e-06 
858.838 3.00599e-06 
859.277 3.00776e-06 
859.717 3.00955e-06 
860.156 3.01135e-06 
860.596 3.01316e-06 
861.035 3.01499e-06 
861.475 3.01684e-06 
861.914 3.0187e-06 
862.354 3.02057e-06 
862.793 3.02245e-06 
863.232 3.02435e-06 
863.672 3.02626e-06 
864.111 3.02818e-06 
864.551 3.03011e-06 
864.99 3.03206e-06 
865.43 3.03402e-06 
865.869 3.03598e-06 
866.309 3.03796e-06 
866.748 3.03995e-06 
867.188 3.04195e-06 
867.627 3.04396e-06 
868.066 3.04597e-06 
868.506 3.048e-06 
868.945 3.05004e-06 
869.385 3.05209e-06 
869.824 3.05415e-06 
870.264 3.05622e-06 
870.703 3.05829e-06 
871.143 3.06038e-06 
871.582 3.06247e-06 
872.021 3.06457e-06 
872.461 3.06669e-06 
872.9 3.06881e-06 
873.34 3.07094e-06 
873.779 3.07308e-06 
874.219 3.07522e-06 
874.658 3.07738e-06 
875.098 3.07954e-06 
875.537 3.08171e-06 
875.977 3.08389e-06 
876.416 3.08608e-06 
876.855 3.08827e-06 
877.295 3.09047e-06 
877.734 3.09268e-06 
878.174 3.0949e-06 
878.613 3.09713e-06 
879.053 3.09936e-06 
879.492 3.1016e-06 
879.932 3.10385e-06 
880.371 3.10611e-06 
880.811 3.10837e-06 
881.25 3.11065e-06 
881.689 3.11292e-06 
882.129 3.11521e-06 
882.568 3.1175e-06 
883.008 3.11981e-06 
883.447 3.12212e-06 
883.887 3.12443e-06 
884.326 3.12675e-06 
884.766 3.12909e-06 
885.205 3.13142e-06 
885.645 3.13377e-06 
886.084 3.13612e-06 
886.523 3.13848e-06 
886.963 3.14085e-06 
887.402 3.14323e-06 
887.842 3.14561e-06 
888.281 3.148e-06 
888.721 3.15039e-06 
889.16 3.15279e-06 
889.6 3.1552e-06 
890.039 3.15762e-06 
890.479 3.16005e-06 
890.918 3.16248e-06 
891.357 3.16492e-06 
891.797 3.16736e-06 
892.236 3.16982e-06 
892.676 3.17228e-06 
893.115 3.17475e-06 
893.555 3.17722e-06 
893.994 3.1797e-06 
894.434 3.18219e-06 
894.873 3.18469e-06 
895.312 3.18719e-06 
895.752 3.18971e-06 
896.191 3.19222e-06 
896.631 3.19475e-06 
897.07 3.19728e-06 
897.51 3.19982e-06 
897.949 3.20237e-06 
898.389 3.20493e-06 
898.828 3.20749e-06 
899.268 3.21006e-06 
899.707 3.21264e-06 
900.146 3.21523e-06 
900.586 3.21781e-06 
901.025 3.22042e-06 
901.465 3.22302e-06 
901.904 3.22564e-06 
902.344 3.22826e-06 
902.783 3.23089e-06 
903.223 3.23353e-06 
903.662 3.23617e-06 
904.102 3.23883e-06 
904.541 3.24149e-06 
904.98 3.24415e-06 
905.42 3.24683e-06 
905.859 3.24951e-06 
906.299 3.25221e-06 
906.738 3.2549e-06 
907.178 3.25761e-06 
907.617 3.26033e-06 
908.057 3.26305e-06 
908.496 3.26578e-06 
908.936 3.26852e-06 
909.375 3.27127e-06 
909.814 3.27403e-06 
910.254 3.27679e-06 
910.693 3.27956e-06 
911.133 3.28234e-06 
911.572 3.28513e-06 
912.012 3.28792e-06 
912.451 3.29073e-06 
912.891 3.29354e-06 
913.33 3.29636e-06 
913.77 3.29919e-06 
914.209 3.30202e-06 
914.648 3.30487e-06 
915.088 3.30773e-06 
915.527 3.31059e-06 
915.967 3.31346e-06 
916.406 3.31634e-06 
916.846 3.31923e-06 
917.285 3.32213e-06 
917.725 3.32504e-06 
918.164 3.32795e-06 
918.604 3.33087e-06 
919.043 3.33381e-06 
919.482 3.33675e-06 
919.922 3.3397e-06 
920.361 3.34266e-06 
920.801 3.34563e-06 
921.24 3.34861e-06 
921.68 3.3516e-06 
922.119 3.3546e-06 
922.559 3.35761e-06 
922.998 3.36062e-06 
923.438 3.36364e-06 
923.877 3.36668e-06 
924.316 3.36973e-06 
924.756 3.37278e-06 
925.195 3.37584e-06 
925.635 3.37892e-06 
926.074 3.382e-06 
926.514 3.38509e-06 
926.953 3.3882e-06 
927.393 3.39131e-06 
927.832 3.39443e-06 
928.271 3.39757e-06 
928.711 3.40071e-06 
929.15 3.40387e-06 
929.59 3.40703e-06 
930.029 3.41021e-06 
930.469 3.4134e-06 
930.908 3.41659e-06 
931.348 3.4198e-06 
931.787 3.42301e-06 
932.227 3.42624e-06 
932.666 3.42948e-06 
933.105 3.43273e-06 
933.545 3.43599e-06 
933.984 3.43926e-06 
934.424 3.44255e-06 
934.863 3.44584e-06 
935.303 3.44915e-06 
935.742 3.45247e-06 
936.182 3.45579e-06 
936.621 3.45914e-06 
937.061 3.46249e-06 
937.5 3.46585e-06 
937.939 3.46923e-06 
938.379 3.47261e-06 
938.818 3.47601e-06 
939.258 3.47942e-06 
939.697 3.48285e-06 
940.137 3.48629e-06 
940.576 3.48974e-06 
941.016 3.4932e-06 
941.455 3.49667e-06 
941.895 3.50015e-06 
942.334 3.50365e-06 
942.773 3.50717e-06 
943.213 3.51069e-06 
943.652 3.51423e-06 
944.092 3.51778e-06 
944.531 3.52134e-06 
944.971 3.52492e-06 
945.41 3.52851e-06 
945.85 3.53212e-06 
946.289 3.53574e-06 
946.729 3.53938e-06 
947.168 3.54302e-06 
947.607 3.54668e-06 
948.047 3.55036e-06 
948.486 3.55405e-06 
948.926 3.55775e-06 
949.365 3.56147e-06 
949.805 3.56521e-06 
950.244 3.56895e-06 
950.684 3.57272e-06 
951.123 3.5765e-06 
951.562 3.58029e-06 
952.002 3.5841e-06 
952.441 3.58792e-06 
952.881 3.59177e-06 
953.32 3.59562e-06 
953.76 3.5995e-06 
954.199 3.60339e-06 
954.639 3.60729e-06 
955.078 3.61122e-06 
955.518 3.61515e-06 
955.957 3.61911e-06 
956.396 3.62308e-06 
956.836 3.62707e-06 
957.275 3.63108e-06 
957.715 3.63511e-06 
958.154 3.63915e-06 
958.594 3.64321e-06 
959.033 3.64729e-06 
959.473 3.65139e-06 
959.912 3.6555e-06 
960.352 3.65964e-06 
960.791 3.66379e-06 
961.23 3.66796e-06 
961.67 3.67216e-06 
962.109 3.67637e-06 
962.549 3.6806e-06 
962.988 3.68485e-06 
963.428 3.68912e-06 
963.867 3.69342e-06 
964.307 3.69773e-06 
964.746 3.70206e-06 
965.186 3.70642e-06 
965.625 3.71079e-06 
966.064 3.71519e-06 
966.504 3.71961e-06 
966.943 3.72405e-06 
967.383 3.72852e-06 
967.822 3.73301e-06 
968.262 3.73752e-06 
968.701 3.74205e-06 
969.141 3.74661e-06 
969.58 3.75119e-06 
970.02 3.75579e-06 
970.459 3.76042e-06 
970.898 3.76507e-06 
971.338 3.76975e-06 
971.777 3.77445e-06 
972.217 3.77918e-06 
972.656 3.78393e-06 
973.096 3.78872e-06 
973.535 3.79352e-06 
973.975 3.79835e-06 
974.414 3.80321e-06 
974.854 3.80809e-06 
975.293 3.813e-06 
975.732 3.81794e-06 
976.172 3.82291e-06 
976.611 3.8279e-06 
977.051 3.83292e-06 
977.49 3.83797e-06 
977.93 3.84304e-06 
978.369 3.84814e-06 
978.809 3.85327e-06 
979.248 3.85843e-06 
979.688 3.86362e-06 
980.127 3.86883e-06 
980.566 3.87407e-06 
981.006 3.87934e-06 
981.445 3.88464e-06 
981.885 3.88996e-06 
982.324 3.89531e-06 
982.764 3.90068e-06 
983.203 3.90609e-06 
983.643 3.91152e-06 
984.082 3.91696e-06 
984.521 3.92244e-06 
984.961 3.92794e-06 
985.4 3.93346e-06 
985.84 3.939e-06 
986.279 3.94457e-06 
986.719 3.95015e-06 
987.158 3.95575e-06 
987.598 3.96136e-06 
988.037 3.967e-06 
988.477 3.97264e-06 
988.916 3.97829e-06 
989.355 3.98396e-06 
989.795 3.98963e-06 
990.234 3.9953e-06 
990.674 4.00098e-06 
991.113 4.00665e-06 
991.553 4.01232e-06 
991.992 4.01797e-06 
992.432 4.02362e-06 
992.871 4.02925e-06 
993.311 4.03486e-06 
993.75 4.04044e-06 
994.189 4.04599e-06 
994.629 4.05151e-06 
995.068 4.05698e-06 
995.508 4.0624e-06 
995.947 4.06777e-06 
996.387 4.07308e-06 
996.826 4.07832e-06 
997.266 4.08348e-06 
997.705 4.08855e-06 
998.145 4.09353e-06 
998.584 4.09841e-06 
999.023 4.10316e-06 
999.463 4.1078e-06 
999.902 4.1123e-06 
1000.34 4.11665e-06 
1000.78 4.12084e-06 
1001.22 4.12485e-06 
1001.66 4.12868e-06 
1002.1 4.13231e-06 
1002.54 4.13571e-06 
1002.98 4.13889e-06 
1003.42 4.14181e-06 
1003.86 4.14446e-06 
1004.3 4.14684e-06 
1004.74 4.1489e-06 
1005.18 4.15064e-06 
1005.62 4.15203e-06 
1006.05 4.15306e-06 
1006.49 4.1537e-06 
1006.93 4.15393e-06 
1007.37 4.15372e-06 
1007.81 4.15305e-06 
1008.25 4.1519e-06 
1008.69 4.15025e-06 
1009.13 4.14805e-06 
1009.57 4.14529e-06 
1010.01 4.14195e-06 
1010.45 4.13798e-06 
1010.89 4.13337e-06 
1011.33 4.12808e-06 
1011.77 4.12209e-06 
1012.21 4.11537e-06 
1012.65 4.10788e-06 
1013.09 4.09961e-06 
1013.53 4.09052e-06 
1013.96 4.08058e-06 
1014.4 4.06976e-06 
1014.84 4.05804e-06 
1015.28 4.0454e-06 
1015.72 4.0318e-06 
1016.16 4.01722e-06 
1016.6 4.00165e-06 
1017.04 3.98506e-06 
1017.48 3.96744e-06 
1017.92 3.94878e-06 
1018.36 3.92907e-06 
1018.8 3.90829e-06 
1019.24 3.88646e-06 
1019.68 3.86359e-06 
1020.12 3.83967e-06 
1020.56 3.81474e-06 
1021 3.78882e-06 
1021.44 3.76196e-06 
1021.88 3.73423e-06 
1022.31 3.70568e-06 
