#energy geo_1 
600 1.02656e-07 
600.439 1.02773e-07 
600.879 1.02889e-07 
601.318 1.03005e-07 
601.758 1.03122e-07 
602.197 1.03238e-07 
602.637 1.03354e-07 
603.076 1.03471e-07 
603.516 1.03587e-07 
603.955 1.03703e-07 
604.395 1.0382e-07 
604.834 1.03936e-07 
605.273 1.04052e-07 
605.713 1.04169e-07 
606.152 1.04285e-07 
606.592 1.04402e-07 
607.031 1.04518e-07 
607.471 1.04634e-07 
607.91 1.04751e-07 
608.35 1.04867e-07 
608.789 1.04983e-07 
609.229 1.051e-07 
609.668 1.05216e-07 
610.107 1.05332e-07 
610.547 1.05449e-07 
610.986 1.05565e-07 
611.426 1.05682e-07 
611.865 1.05798e-07 
612.305 1.05914e-07 
612.744 1.06031e-07 
613.184 1.06147e-07 
613.623 1.06264e-07 
614.062 1.0638e-07 
614.502 1.06496e-07 
614.941 1.06613e-07 
615.381 1.06729e-07 
615.82 1.06846e-07 
616.26 1.06962e-07 
616.699 1.07078e-07 
617.139 1.07195e-07 
617.578 1.07311e-07 
618.018 1.07427e-07 
618.457 1.07544e-07 
618.896 1.0766e-07 
619.336 1.07777e-07 
619.775 1.07893e-07 
620.215 1.08009e-07 
620.654 1.08126e-07 
621.094 1.08242e-07 
621.533 1.08358e-07 
621.973 1.08474e-07 
622.412 1.08591e-07 
622.852 1.08707e-07 
623.291 1.08823e-07 
623.73 1.0894e-07 
624.17 1.09056e-07 
624.609 1.09172e-07 
625.049 1.09288e-07 
625.488 1.09404e-07 
625.928 1.09521e-07 
626.367 1.09637e-07 
626.807 1.09753e-07 
627.246 1.09869e-07 
627.686 1.09985e-07 
628.125 1.10101e-07 
628.564 1.10217e-07 
629.004 1.10333e-07 
629.443 1.10449e-07 
629.883 1.10565e-07 
630.322 1.10681e-07 
630.762 1.10797e-07 
631.201 1.10912e-07 
631.641 1.11028e-07 
632.08 1.11144e-07 
632.52 1.11259e-07 
632.959 1.11375e-07 
633.398 1.11491e-07 
633.838 1.11606e-07 
634.277 1.11722e-07 
634.717 1.11837e-07 
635.156 1.11952e-07 
635.596 1.12068e-07 
636.035 1.12183e-07 
636.475 1.12298e-07 
636.914 1.12413e-07 
637.354 1.12528e-07 
637.793 1.12643e-07 
638.232 1.12758e-07 
638.672 1.12873e-07 
639.111 1.12987e-07 
639.551 1.13102e-07 
639.99 1.13216e-07 
640.43 1.13331e-07 
640.869 1.13445e-07 
641.309 1.1356e-07 
641.748 1.13674e-07 
642.188 1.13788e-07 
642.627 1.13902e-07 
643.066 1.14016e-07 
643.506 1.1413e-07 
643.945 1.14243e-07 
644.385 1.14357e-07 
644.824 1.1447e-07 
645.264 1.14584e-07 
645.703 1.14697e-07 
646.143 1.1481e-07 
646.582 1.14923e-07 
647.021 1.15036e-07 
647.461 1.15149e-07 
647.9 1.15262e-07 
648.34 1.15374e-07 
648.779 1.15487e-07 
649.219 1.15599e-07 
649.658 1.15711e-07 
650.098 1.15824e-07 
650.537 1.15935e-07 
650.977 1.16047e-07 
651.416 1.16159e-07 
651.855 1.1627e-07 
652.295 1.16382e-07 
652.734 1.16493e-07 
653.174 1.16604e-07 
653.613 1.16715e-07 
654.053 1.16826e-07 
654.492 1.16936e-07 
654.932 1.17047e-07 
655.371 1.17157e-07 
655.811 1.17267e-07 
656.25 1.17377e-07 
656.689 1.17487e-07 
657.129 1.17596e-07 
657.568 1.17706e-07 
658.008 1.17815e-07 
658.447 1.17924e-07 
658.887 1.18033e-07 
659.326 1.18142e-07 
659.766 1.1825e-07 
660.205 1.18358e-07 
660.645 1.18467e-07 
661.084 1.18574e-07 
661.523 1.18682e-07 
661.963 1.18789e-07 
662.402 1.18897e-07 
662.842 1.19004e-07 
663.281 1.19111e-07 
663.721 1.19217e-07 
664.16 1.19323e-07 
664.6 1.1943e-07 
665.039 1.19535e-07 
665.479 1.19641e-07 
665.918 1.19746e-07 
666.357 1.19851e-07 
666.797 1.19956e-07 
667.236 1.20061e-07 
667.676 1.20165e-07 
668.115 1.20269e-07 
668.555 1.20373e-07 
668.994 1.20477e-07 
669.434 1.2058e-07 
669.873 1.20683e-07 
670.312 1.20786e-07 
670.752 1.20888e-07 
671.191 1.2099e-07 
671.631 1.21092e-07 
672.07 1.21194e-07 
672.51 1.21295e-07 
672.949 1.21396e-07 
673.389 1.21496e-07 
673.828 1.21597e-07 
674.268 1.21697e-07 
674.707 1.21796e-07 
675.146 1.21896e-07 
675.586 1.21995e-07 
676.025 1.22094e-07 
676.465 1.22192e-07 
676.904 1.2229e-07 
677.344 1.22388e-07 
677.783 1.22485e-07 
678.223 1.22582e-07 
678.662 1.22679e-07 
679.102 1.22775e-07 
679.541 1.22871e-07 
679.98 1.22967e-07 
680.42 1.23062e-07 
680.859 1.23157e-07 
681.299 1.23252e-07 
681.738 1.23346e-07 
682.178 1.2344e-07 
682.617 1.23533e-07 
683.057 1.23626e-07 
683.496 1.23719e-07 
683.936 1.23811e-07 
684.375 1.23903e-07 
684.814 1.23995e-07 
685.254 1.24086e-07 
685.693 1.24177e-07 
686.133 1.24268e-07 
686.572 1.24358e-07 
687.012 1.24447e-07 
687.451 1.24537e-07 
687.891 1.24626e-07 
688.33 1.24714e-07 
688.77 1.24802e-07 
689.209 1.2489e-07 
689.648 1.24977e-07 
690.088 1.25064e-07 
690.527 1.2515e-07 
690.967 1.25236e-07 
691.406 1.25322e-07 
691.846 1.25407e-07 
692.285 1.25492e-07 
692.725 1.25576e-07 
693.164 1.2566e-07 
693.604 1.25743e-07 
694.043 1.25826e-07 
694.482 1.25909e-07 
694.922 1.25991e-07 
695.361 1.26072e-07 
695.801 1.26153e-07 
696.24 1.26234e-07 
696.68 1.26314e-07 
697.119 1.26393e-07 
697.559 1.26472e-07 
697.998 1.26551e-07 
698.438 1.26629e-07 
698.877 1.26707e-07 
699.316 1.26784e-07 
699.756 1.2686e-07 
700.195 1.26936e-07 
700.635 1.27012e-07 
701.074 1.27087e-07 
701.514 1.27161e-07 
701.953 1.27235e-07 
702.393 1.27308e-07 
702.832 1.27381e-07 
703.271 1.27453e-07 
703.711 1.27525e-07 
704.15 1.27596e-07 
704.59 1.27667e-07 
705.029 1.27737e-07 
705.469 1.27806e-07 
705.908 1.27875e-07 
706.348 1.27943e-07 
706.787 1.28011e-07 
707.227 1.28078e-07 
707.666 1.28145e-07 
708.105 1.2821e-07 
708.545 1.28276e-07 
708.984 1.28341e-07 
709.424 1.28405e-07 
709.863 1.28468e-07 
710.303 1.28532e-07 
710.742 1.28594e-07 
711.182 1.28656e-07 
711.621 1.28717e-07 
712.061 1.28778e-07 
712.5 1.28838e-07 
712.939 1.28898e-07 
713.379 1.28957e-07 
713.818 1.29015e-07 
714.258 1.29073e-07 
714.697 1.29131e-07 
715.137 1.29187e-07 
715.576 1.29244e-07 
716.016 1.29299e-07 
716.455 1.29354e-07 
716.895 1.29409e-07 
717.334 1.29463e-07 
717.773 1.29517e-07 
718.213 1.2957e-07 
718.652 1.29622e-07 
719.092 1.29674e-07 
719.531 1.29725e-07 
719.971 1.29776e-07 
720.41 1.29827e-07 
720.85 1.29877e-07 
721.289 1.29926e-07 
721.729 1.29975e-07 
722.168 1.30023e-07 
722.607 1.30071e-07 
723.047 1.30119e-07 
723.486 1.30166e-07 
723.926 1.30212e-07 
724.365 1.30258e-07 
724.805 1.30304e-07 
725.244 1.30349e-07 
725.684 1.30394e-07 
726.123 1.30438e-07 
726.562 1.30482e-07 
727.002 1.30525e-07 
727.441 1.30568e-07 
727.881 1.30611e-07 
728.32 1.30653e-07 
728.76 1.30695e-07 
729.199 1.30736e-07 
729.639 1.30778e-07 
730.078 1.30818e-07 
730.518 1.30859e-07 
730.957 1.30899e-07 
731.396 1.30938e-07 
731.836 1.30978e-07 
732.275 1.31017e-07 
732.715 1.31055e-07 
733.154 1.31094e-07 
733.594 1.31132e-07 
734.033 1.3117e-07 
734.473 1.31208e-07 
734.912 1.31245e-07 
735.352 1.31282e-07 
735.791 1.31319e-07 
736.23 1.31356e-07 
736.67 1.31393e-07 
737.109 1.3143e-07 
737.549 1.31466e-07 
737.988 1.31502e-07 
738.428 1.31538e-07 
738.867 1.31575e-07 
739.307 1.31611e-07 
739.746 1.31647e-07 
740.186 1.31683e-07 
740.625 1.31719e-07 
741.064 1.31755e-07 
741.504 1.31791e-07 
741.943 1.31827e-07 
742.383 1.31864e-07 
742.822 1.319e-07 
743.262 1.31937e-07 
743.701 1.31974e-07 
744.141 1.3201e-07 
744.58 1.32048e-07 
745.02 1.32085e-07 
745.459 1.32123e-07 
745.898 1.32161e-07 
746.338 1.32199e-07 
746.777 1.32238e-07 
747.217 1.32277e-07 
747.656 1.32316e-07 
748.096 1.32356e-07 
748.535 1.32397e-07 
748.975 1.32437e-07 
749.414 1.32478e-07 
749.854 1.3252e-07 
750.293 1.32562e-07 
750.732 1.32605e-07 
751.172 1.32648e-07 
751.611 1.32692e-07 
752.051 1.32737e-07 
752.49 1.32782e-07 
752.93 1.32828e-07 
753.369 1.32874e-07 
753.809 1.32921e-07 
754.248 1.32969e-07 
754.688 1.33017e-07 
755.127 1.33066e-07 
755.566 1.33116e-07 
756.006 1.33167e-07 
756.445 1.33218e-07 
756.885 1.3327e-07 
757.324 1.33323e-07 
757.764 1.33377e-07 
758.203 1.33431e-07 
758.643 1.33486e-07 
759.082 1.33542e-07 
759.521 1.33599e-07 
759.961 1.33657e-07 
760.4 1.33715e-07 
760.84 1.33774e-07 
761.279 1.33835e-07 
761.719 1.33896e-07 
762.158 1.33957e-07 
762.598 1.3402e-07 
763.037 1.34083e-07 
763.477 1.34148e-07 
763.916 1.34213e-07 
764.355 1.34279e-07 
764.795 1.34346e-07 
765.234 1.34414e-07 
765.674 1.34483e-07 
766.113 1.34553e-07 
766.553 1.34623e-07 
766.992 1.34695e-07 
767.432 1.34767e-07 
767.871 1.3484e-07 
768.311 1.34915e-07 
768.75 1.3499e-07 
769.189 1.35066e-07 
769.629 1.35143e-07 
770.068 1.35221e-07 
770.508 1.353e-07 
770.947 1.3538e-07 
771.387 1.35461e-07 
771.826 1.35543e-07 
772.266 1.35625e-07 
772.705 1.35709e-07 
773.145 1.35794e-07 
773.584 1.3588e-07 
774.023 1.35967e-07 
774.463 1.36054e-07 
774.902 1.36143e-07 
775.342 1.36233e-07 
775.781 1.36324e-07 
776.221 1.36416e-07 
776.66 1.36509e-07 
777.1 1.36603e-07 
777.539 1.36698e-07 
777.979 1.36794e-07 
778.418 1.36891e-07 
778.857 1.3699e-07 
779.297 1.37089e-07 
779.736 1.37189e-07 
780.176 1.37291e-07 
780.615 1.37393e-07 
781.055 1.37496e-07 
781.494 1.37601e-07 
781.934 1.37706e-07 
782.373 1.37813e-07 
782.812 1.37921e-07 
783.252 1.38029e-07 
783.691 1.38139e-07 
784.131 1.38249e-07 
784.57 1.38361e-07 
785.01 1.38473e-07 
785.449 1.38587e-07 
785.889 1.38701e-07 
786.328 1.38816e-07 
786.768 1.38932e-07 
787.207 1.3905e-07 
787.646 1.39168e-07 
788.086 1.39286e-07 
788.525 1.39406e-07 
788.965 1.39526e-07 
789.404 1.39648e-07 
789.844 1.3977e-07 
790.283 1.39892e-07 
790.723 1.40016e-07 
791.162 1.4014e-07 
791.602 1.40265e-07 
792.041 1.4039e-07 
792.48 1.40516e-07 
792.92 1.40643e-07 
793.359 1.4077e-07 
793.799 1.40898e-07 
794.238 1.41026e-07 
794.678 1.41155e-07 
795.117 1.41285e-07 
795.557 1.41415e-07 
795.996 1.41545e-07 
796.436 1.41676e-07 
796.875 1.41807e-07 
797.314 1.41939e-07 
797.754 1.42071e-07 
798.193 1.42203e-07 
798.633 1.42336e-07 
799.072 1.42469e-07 
799.512 1.42602e-07 
799.951 1.42736e-07 
800.391 1.4287e-07 
800.83 1.43004e-07 
801.27 1.43139e-07 
801.709 1.43274e-07 
802.148 1.4341e-07 
802.588 1.43545e-07 
803.027 1.43681e-07 
803.467 1.43817e-07 
803.906 1.43953e-07 
804.346 1.4409e-07 
804.785 1.44227e-07 
805.225 1.44365e-07 
805.664 1.44502e-07 
806.104 1.4464e-07 
806.543 1.44779e-07 
806.982 1.44918e-07 
807.422 1.45057e-07 
807.861 1.45196e-07 
808.301 1.45336e-07 
808.74 1.45476e-07 
809.18 1.45617e-07 
809.619 1.45758e-07 
810.059 1.45899e-07 
810.498 1.46041e-07 
810.938 1.46183e-07 
811.377 1.46326e-07 
811.816 1.4647e-07 
812.256 1.46614e-07 
812.695 1.46758e-07 
813.135 1.46903e-07 
813.574 1.47049e-07 
814.014 1.47196e-07 
814.453 1.47343e-07 
814.893 1.4749e-07 
815.332 1.47639e-07 
815.771 1.47788e-07 
816.211 1.47938e-07 
816.65 1.48089e-07 
817.09 1.4824e-07 
817.529 1.48393e-07 
817.969 1.48546e-07 
818.408 1.48701e-07 
818.848 1.48856e-07 
819.287 1.49012e-07 
819.727 1.4917e-07 
820.166 1.49328e-07 
820.605 1.49487e-07 
821.045 1.49648e-07 
821.484 1.4981e-07 
821.924 1.49973e-07 
822.363 1.50138e-07 
822.803 1.50303e-07 
823.242 1.5047e-07 
823.682 1.50639e-07 
824.121 1.50808e-07 
824.561 1.5098e-07 
825 1.51153e-07 
825.439 1.51327e-07 
825.879 1.51503e-07 
826.318 1.51681e-07 
826.758 1.51861e-07 
827.197 1.52042e-07 
827.637 1.52225e-07 
828.076 1.5241e-07 
828.516 1.52597e-07 
828.955 1.52786e-07 
829.395 1.52976e-07 
829.834 1.53169e-07 
830.273 1.53364e-07 
830.713 1.53562e-07 
831.152 1.53761e-07 
831.592 1.53963e-07 
832.031 1.54167e-07 
832.471 1.54373e-07 
832.91 1.54582e-07 
833.35 1.54793e-07 
833.789 1.55007e-07 
834.229 1.55224e-07 
834.668 1.55442e-07 
835.107 1.55664e-07 
835.547 1.55889e-07 
835.986 1.56115e-07 
836.426 1.56345e-07 
836.865 1.56578e-07 
837.305 1.56813e-07 
837.744 1.57052e-07 
838.184 1.57293e-07 
838.623 1.57538e-07 
839.062 1.57785e-07 
839.502 1.58035e-07 
839.941 1.58289e-07 
840.381 1.58545e-07 
840.82 1.58805e-07 
841.26 1.59068e-07 
841.699 1.59334e-07 
842.139 1.59604e-07 
842.578 1.59876e-07 
843.018 1.60152e-07 
843.457 1.60431e-07 
843.896 1.60714e-07 
844.336 1.61e-07 
844.775 1.61289e-07 
845.215 1.61582e-07 
845.654 1.61878e-07 
846.094 1.62178e-07 
846.533 1.62481e-07 
846.973 1.62787e-07 
847.412 1.63098e-07 
847.852 1.63411e-07 
848.291 1.63729e-07 
848.73 1.64049e-07 
849.17 1.64374e-07 
849.609 1.64702e-07 
850.049 1.65034e-07 
850.488 1.65369e-07 
850.928 1.65708e-07 
851.367 1.66051e-07 
851.807 1.66397e-07 
852.246 1.66747e-07 
852.686 1.67102e-07 
853.125 1.67459e-07 
853.564 1.67821e-07 
854.004 1.68187e-07 
854.443 1.68556e-07 
854.883 1.68929e-07 
855.322 1.69307e-07 
855.762 1.69688e-07 
856.201 1.70073e-07 
856.641 1.70462e-07 
857.08 1.70855e-07 
857.52 1.71252e-07 
857.959 1.71653e-07 
858.398 1.72059e-07 
858.838 1.72468e-07 
859.277 1.72881e-07 
859.717 1.73299e-07 
860.156 1.73721e-07 
860.596 1.74147e-07 
861.035 1.74577e-07 
861.475 1.75011e-07 
861.914 1.7545e-07 
862.354 1.75892e-07 
862.793 1.76339e-07 
863.232 1.76791e-07 
863.672 1.77246e-07 
864.111 1.77706e-07 
864.551 1.7817e-07 
864.99 1.78639e-07 
865.43 1.79112e-07 
865.869 1.79589e-07 
866.309 1.8007e-07 
866.748 1.80556e-07 
867.188 1.81046e-07 
867.627 1.8154e-07 
868.066 1.82039e-07 
868.506 1.82542e-07 
868.945 1.83049e-07 
869.385 1.8356e-07 
869.824 1.84076e-07 
870.264 1.84596e-07 
870.703 1.8512e-07 
871.143 1.85649e-07 
871.582 1.86181e-07 
872.021 1.86718e-07 
872.461 1.87259e-07 
872.9 1.87804e-07 
873.34 1.88353e-07 
873.779 1.88906e-07 
874.219 1.89464e-07 
874.658 1.90025e-07 
875.098 1.9059e-07 
875.537 1.91159e-07 
875.977 1.91732e-07 
876.416 1.92309e-07 
876.855 1.9289e-07 
877.295 1.93475e-07 
877.734 1.94064e-07 
878.174 1.94656e-07 
878.613 1.95252e-07 
879.053 1.95852e-07 
879.492 1.96455e-07 
879.932 1.97062e-07 
880.371 1.97673e-07 
880.811 1.98287e-07 
881.25 1.98905e-07 
881.689 1.99526e-07 
882.129 2.00151e-07 
882.568 2.00779e-07 
883.008 2.01411e-07 
883.447 2.02046e-07 
883.887 2.02685e-07 
884.326 2.03327e-07 
884.766 2.03972e-07 
885.205 2.04621e-07 
885.645 2.05273e-07 
886.084 2.05928e-07 
886.523 2.06586e-07 
886.963 2.07248e-07 
887.402 2.07913e-07 
887.842 2.08582e-07 
888.281 2.09253e-07 
888.721 2.09928e-07 
889.16 2.10606e-07 
889.6 2.11287e-07 
890.039 2.11972e-07 
890.479 2.12659e-07 
890.918 2.1335e-07 
891.357 2.14045e-07 
891.797 2.14742e-07 
892.236 2.15443e-07 
892.676 2.16147e-07 
893.115 2.16854e-07 
893.555 2.17564e-07 
893.994 2.18278e-07 
894.434 2.18994e-07 
894.873 2.19714e-07 
895.312 2.20438e-07 
895.752 2.21165e-07 
896.191 2.21894e-07 
896.631 2.22627e-07 
897.07 2.23364e-07 
897.51 2.24104e-07 
897.949 2.24847e-07 
898.389 2.25593e-07 
898.828 2.26343e-07 
899.268 2.27096e-07 
899.707 2.27853e-07 
900.146 2.28612e-07 
900.586 2.29376e-07 
901.025 2.30142e-07 
901.465 2.30912e-07 
901.904 2.31685e-07 
902.344 2.32462e-07 
902.783 2.33242e-07 
903.223 2.34026e-07 
903.662 2.34813e-07 
904.102 2.35603e-07 
904.541 2.36397e-07 
904.98 2.37194e-07 
905.42 2.37995e-07 
905.859 2.38799e-07 
906.299 2.39607e-07 
906.738 2.40419e-07 
907.178 2.41234e-07 
907.617 2.42052e-07 
908.057 2.42874e-07 
908.496 2.437e-07 
908.936 2.44529e-07 
909.375 2.45362e-07 
909.814 2.46199e-07 
910.254 2.47039e-07 
910.693 2.47883e-07 
911.133 2.48731e-07 
911.572 2.49582e-07 
912.012 2.50437e-07 
912.451 2.51296e-07 
912.891 2.52159e-07 
913.33 2.53025e-07 
913.77 2.53895e-07 
914.209 2.5477e-07 
914.648 2.55648e-07 
915.088 2.5653e-07 
915.527 2.57416e-07 
915.967 2.58305e-07 
916.406 2.59199e-07 
916.846 2.60097e-07 
917.285 2.60998e-07 
917.725 2.61904e-07 
918.164 2.62814e-07 
918.604 2.63727e-07 
919.043 2.64645e-07 
919.482 2.65566e-07 
919.922 2.66492e-07 
920.361 2.67422e-07 
920.801 2.68356e-07 
921.24 2.69294e-07 
921.68 2.70235e-07 
922.119 2.71181e-07 
922.559 2.72132e-07 
922.998 2.73086e-07 
923.438 2.74044e-07 
923.877 2.75006e-07 
924.316 2.75973e-07 
924.756 2.76943e-07 
925.195 2.77918e-07 
925.635 2.78897e-07 
926.074 2.7988e-07 
926.514 2.80867e-07 
926.953 2.81859e-07 
927.393 2.82854e-07 
927.832 2.83854e-07 
928.271 2.84858e-07 
928.711 2.85866e-07 
929.15 2.86878e-07 
929.59 2.87895e-07 
930.029 2.88916e-07 
930.469 2.89941e-07 
930.908 2.9097e-07 
931.348 2.92004e-07 
931.787 2.93042e-07 
932.227 2.94084e-07 
932.666 2.95131e-07 
933.105 2.96182e-07 
933.545 2.97238e-07 
933.984 2.98298e-07 
934.424 2.99363e-07 
934.863 3.00431e-07 
935.303 3.01505e-07 
935.742 3.02583e-07 
936.182 3.03665e-07 
936.621 3.04752e-07 
937.061 3.05844e-07 
937.5 3.0694e-07 
937.939 3.08041e-07 
938.379 3.09146e-07 
938.818 3.10256e-07 
939.258 3.1137e-07 
939.697 3.1249e-07 
940.137 3.13614e-07 
940.576 3.14743e-07 
941.016 3.15876e-07 
941.455 3.17014e-07 
941.895 3.18157e-07 
942.334 3.19304e-07 
942.773 3.20457e-07 
943.213 3.21614e-07 
943.652 3.22776e-07 
944.092 3.23943e-07 
944.531 3.25114e-07 
944.971 3.2629e-07 
945.41 3.27471e-07 
945.85 3.28657e-07 
946.289 3.29848e-07 
946.729 3.31043e-07 
947.168 3.32244e-07 
947.607 3.33449e-07 
948.047 3.34659e-07 
948.486 3.35873e-07 
948.926 3.37093e-07 
949.365 3.38317e-07 
949.805 3.39547e-07 
950.244 3.40781e-07 
950.684 3.4202e-07 
951.123 3.43264e-07 
951.562 3.44514e-07 
952.002 3.45767e-07 
952.441 3.47026e-07 
952.881 3.4829e-07 
953.32 3.49559e-07 
953.76 3.50833e-07 
954.199 3.52112e-07 
954.639 3.53397e-07 
955.078 3.54686e-07 
955.518 3.5598e-07 
955.957 3.5728e-07 
956.396 3.58585e-07 
956.836 3.59895e-07 
957.275 3.61211e-07 
957.715 3.62531e-07 
958.154 3.63858e-07 
958.594 3.65189e-07 
959.033 3.66526e-07 
959.473 3.67869e-07 
959.912 3.69217e-07 
960.352 3.70571e-07 
960.791 3.7193e-07 
961.23 3.73295e-07 
961.67 3.74665e-07 
962.109 3.76041e-07 
962.549 3.77423e-07 
962.988 3.78811e-07 
963.428 3.80204e-07 
963.867 3.81603e-07 
964.307 3.83008e-07 
964.746 3.84419e-07 
965.186 3.85836e-07 
965.625 3.87259e-07 
966.064 3.88688e-07 
966.504 3.90122e-07 
966.943 3.91563e-07 
967.383 3.9301e-07 
967.822 3.94463e-07 
968.262 3.95922e-07 
968.701 3.97387e-07 
969.141 3.98858e-07 
969.58 4.00336e-07 
970.02 4.0182e-07 
970.459 4.03311e-07 
970.898 4.04808e-07 
971.338 4.06312e-07 
971.777 4.07823e-07 
972.217 4.09341e-07 
972.656 4.10865e-07 
973.096 4.12397e-07 
973.535 4.13936e-07 
973.975 4.15483e-07 
974.414 4.17036e-07 
974.854 4.18598e-07 
975.293 4.20167e-07 
975.732 4.21744e-07 
976.172 4.23329e-07 
976.611 4.24923e-07 
977.051 4.26524e-07 
977.49 4.28134e-07 
977.93 4.29753e-07 
978.369 4.3138e-07 
978.809 4.33016e-07 
979.248 4.34662e-07 
979.688 4.36316e-07 
980.127 4.37979e-07 
980.566 4.39651e-07 
981.006 4.41334e-07 
981.445 4.43025e-07 
981.885 4.44727e-07 
982.324 4.46438e-07 
982.764 4.4816e-07 
983.203 4.49891e-07 
983.643 4.51634e-07 
984.082 4.53386e-07 
984.521 4.5515e-07 
984.961 4.56924e-07 
985.4 4.5871e-07 
985.84 4.60507e-07 
986.279 4.62316e-07 
986.719 4.64137e-07 
987.158 4.65971e-07 
987.598 4.67817e-07 
988.037 4.69676e-07 
988.477 4.71548e-07 
988.916 4.73434e-07 
989.355 4.75334e-07 
989.795 4.77248e-07 
990.234 4.79177e-07 
990.674 4.81121e-07 
991.113 4.8308e-07 
991.553 4.85055e-07 
991.992 4.87047e-07 
992.432 4.89054e-07 
992.871 4.91079e-07 
993.311 4.9312e-07 
993.75 4.95179e-07 
994.189 4.97255e-07 
994.629 4.9935e-07 
995.068 5.01464e-07 
995.508 5.03597e-07 
995.947 5.05749e-07 
996.387 5.07921e-07 
996.826 5.10113e-07 
997.266 5.12326e-07 
997.705 5.14558e-07 
998.145 5.16813e-07 
998.584 5.19089e-07 
999.023 5.21388e-07 
999.463 5.2371e-07 
999.902 5.26056e-07 
1000.34 5.28426e-07 
1000.78 5.30821e-07 
1001.22 5.33239e-07 
1001.66 5.35681e-07 
1002.1 5.38149e-07 
1002.54 5.40644e-07 
1002.98 5.43166e-07 
1003.42 5.45717e-07 
1003.86 5.48298e-07 
1004.3 5.50908e-07 
1004.74 5.53547e-07 
1005.18 5.56215e-07 
1005.62 5.5891e-07 
1006.05 5.61636e-07 
1006.49 5.6439e-07 
1006.93 5.67178e-07 
1007.37 5.7e-07 
1007.81 5.72858e-07 
1008.25 5.75751e-07 
1008.69 5.78678e-07 
1009.13 5.81637e-07 
1009.57 5.84628e-07 
1010.01 5.8765e-07 
1010.45 5.90705e-07 
1010.89 5.93795e-07 
1011.33 5.96925e-07 
1011.77 6.00097e-07 
1012.21 6.03307e-07 
1012.65 6.06553e-07 
1013.09 6.09838e-07 
1013.53 6.13162e-07 
1013.96 6.16523e-07 
1014.4 6.19925e-07 
1014.84 6.23371e-07 
1015.28 6.26856e-07 
1015.72 6.30382e-07 
1016.16 6.33955e-07 
1016.6 6.37576e-07 
1017.04 6.41238e-07 
1017.48 6.44942e-07 
1017.92 6.48694e-07 
1018.36 6.52498e-07 
1018.8 6.56352e-07 
1019.24 6.6025e-07 
1019.68 6.64196e-07 
1020.12 6.68196e-07 
1020.56 6.72253e-07 
1021 6.76362e-07 
1021.44 6.80518e-07 
1021.88 6.84726e-07 
