#energy geo_1 
600 6.99606e-06 
600.439 7.00144e-06 
600.879 7.00658e-06 
601.318 7.01147e-06 
601.758 7.0161e-06 
602.197 7.02048e-06 
602.637 7.02459e-06 
603.076 7.02842e-06 
603.516 7.03198e-06 
603.955 7.03528e-06 
604.395 7.0383e-06 
604.834 7.04107e-06 
605.273 7.04358e-06 
605.713 7.04585e-06 
606.152 7.04789e-06 
606.592 7.04974e-06 
607.031 7.05143e-06 
607.471 7.05297e-06 
607.91 7.05443e-06 
608.35 7.05586e-06 
608.789 7.05734e-06 
609.229 7.05896e-06 
609.668 7.06079e-06 
610.107 7.06298e-06 
610.547 7.06567e-06 
610.986 7.06907e-06 
611.426 7.07338e-06 
611.865 7.07886e-06 
612.305 7.08582e-06 
612.744 7.0947e-06 
613.184 7.10595e-06 
613.623 7.12017e-06 
614.062 7.13804e-06 
614.502 7.16046e-06 
614.941 7.18851e-06 
615.381 7.22353e-06 
615.82 7.26715e-06 
616.26 7.32139e-06 
616.699 7.38871e-06 
617.139 7.47215e-06 
617.578 7.57527e-06 
618.018 7.70215e-06 
618.457 7.85715e-06 
618.896 8.04425e-06 
619.336 8.26588e-06 
619.775 8.52029e-06 
620.215 8.79807e-06 
620.654 9.07786e-06 
621.094 9.3241e-06 
621.533 9.49148e-06 
621.973 9.53894e-06 
622.412 9.44856e-06 
622.852 9.23503e-06 
623.291 8.93809e-06 
623.73 8.60402e-06 
624.17 8.27055e-06 
624.609 7.96144e-06 
625.049 7.68823e-06 
625.488 7.4545e-06 
625.928 7.25961e-06 
626.367 7.10144e-06 
626.807 6.97788e-06 
627.246 6.88782e-06 
627.686 6.83178e-06 
628.125 6.81243e-06 
628.564 6.83546e-06 
629.004 6.91085e-06 
629.443 7.05536e-06 
629.883 7.29673e-06 
630.322 7.68203e-06 
630.762 8.29447e-06 
631.201 9.29001e-06 
631.641 1.09832e-05 
632.08 1.40641e-05 
632.52 2.0155e-05 
632.959 3.27319e-05 
633.398 5.15647e-05 
633.838 4.97743e-05 
634.277 3.12747e-05 
634.717 1.94982e-05 
635.156 1.37345e-05 
635.596 1.08135e-05 
636.035 9.22426e-06 
636.475 8.31825e-06 
636.914 7.7948e-06 
637.354 7.49675e-06 
637.793 7.32686e-06 
638.232 7.21308e-06 
638.672 7.09734e-06 
639.111 6.93866e-06 
639.551 6.7205e-06 
639.99 6.45132e-06 
640.43 6.15499e-06 
640.869 5.85764e-06 
641.309 5.57904e-06 
641.748 5.33062e-06 
642.188 5.11707e-06 
642.627 4.93932e-06 
643.066 4.79664e-06 
643.506 4.68817e-06 
643.945 4.61396e-06 
644.385 4.5756e-06 
644.824 4.57697e-06 
645.264 4.62507e-06 
645.703 4.73143e-06 
646.143 4.91448e-06 
646.582 5.20379e-06 
647.021 5.64789e-06 
647.461 6.32958e-06 
647.9 7.39724e-06 
648.34 9.13521e-06 
648.779 1.21322e-05 
649.219 1.77157e-05 
649.658 2.90188e-05 
650.098 5.16183e-05 
650.537 7.49188e-05 
650.977 5.9058e-05 
651.416 3.39705e-05 
651.855 1.99555e-05 
652.295 1.30192e-05 
652.734 9.33901e-06 
653.174 7.20431e-06 
653.613 5.86899e-06 
654.053 4.98223e-06 
654.492 4.36455e-06 
654.932 3.91751e-06 
655.371 3.58362e-06 
655.811 3.32765e-06 
656.25 3.12706e-06 
656.689 2.96692e-06 
657.129 2.83699e-06 
657.568 2.73011e-06 
658.008 2.6411e-06 
658.447 2.56619e-06 
658.887 2.50255e-06 
659.326 2.44803e-06 
659.766 2.40097e-06 
660.205 2.36009e-06 
660.645 2.32435e-06 
661.084 2.29295e-06 
661.523 2.26523e-06 
661.963 2.24065e-06 
662.402 2.21877e-06 
662.842 2.19923e-06 
663.281 2.18172e-06 
663.721 2.16599e-06 
664.16 2.15181e-06 
664.6 2.13902e-06 
665.039 2.12745e-06 
665.479 2.11696e-06 
665.918 2.10745e-06 
666.357 2.09881e-06 
666.797 2.09095e-06 
667.236 2.08379e-06 
667.676 2.07727e-06 
668.115 2.07133e-06 
668.555 2.06592e-06 
668.994 2.06098e-06 
669.434 2.05649e-06 
669.873 2.05239e-06 
670.312 2.04865e-06 
670.752 2.04526e-06 
671.191 2.04217e-06 
671.631 2.03936e-06 
672.07 2.03681e-06 
672.51 2.03451e-06 
672.949 2.03242e-06 
673.389 2.03054e-06 
673.828 2.02885e-06 
674.268 2.02733e-06 
674.707 2.02597e-06 
675.146 2.02476e-06 
675.586 2.02369e-06 
676.025 2.02274e-06 
676.465 2.0219e-06 
676.904 2.02117e-06 
677.344 2.02053e-06 
677.783 2.01998e-06 
678.223 2.01952e-06 
678.662 2.01912e-06 
679.102 2.01879e-06 
679.541 2.01852e-06 
679.98 2.0183e-06 
680.42 2.01813e-06 
680.859 2.01799e-06 
681.299 2.0179e-06 
681.738 2.01783e-06 
682.178 2.01779e-06 
682.617 2.01777e-06 
683.057 2.01777e-06 
683.496 2.01778e-06 
683.936 2.0178e-06 
684.375 2.01782e-06 
684.814 2.01785e-06 
685.254 2.01789e-06 
685.693 2.01792e-06 
686.133 2.01795e-06 
686.572 2.01798e-06 
687.012 2.01801e-06 
687.451 2.01804e-06 
687.891 2.01806e-06 
688.33 2.01808e-06 
688.77 2.01811e-06 
689.209 2.01814e-06 
689.648 2.01819e-06 
690.088 2.01825e-06 
690.527 2.01834e-06 
690.967 2.01846e-06 
691.406 2.01862e-06 
691.846 2.01884e-06 
692.285 2.01913e-06 
692.725 2.01951e-06 
693.164 2.02e-06 
693.604 2.02062e-06 
694.043 2.0214e-06 
694.482 2.02237e-06 
694.922 2.02357e-06 
695.361 2.02505e-06 
695.801 2.02685e-06 
696.24 2.02903e-06 
696.68 2.03167e-06 
697.119 2.03484e-06 
697.559 2.03864e-06 
697.998 2.04318e-06 
698.438 2.04859e-06 
698.877 2.05503e-06 
699.316 2.06268e-06 
699.756 2.07176e-06 
700.195 2.08255e-06 
700.635 2.09535e-06 
701.074 2.11055e-06 
701.514 2.12862e-06 
701.953 2.15013e-06 
702.393 2.17578e-06 
702.832 2.20642e-06 
703.271 2.24311e-06 
703.711 2.28712e-06 
704.15 2.34006e-06 
704.59 2.40382e-06 
705.029 2.48069e-06 
705.469 2.57327e-06 
705.908 2.68438e-06 
706.348 2.81664e-06 
706.787 2.97169e-06 
707.227 3.14869e-06 
707.666 3.34207e-06 
708.105 3.5388e-06 
708.545 3.71678e-06 
708.984 3.84712e-06 
709.424 3.90269e-06 
709.863 3.86995e-06 
710.303 3.756e-06 
710.742 3.58473e-06 
711.182 3.38559e-06 
711.621 3.18349e-06 
712.061 2.99454e-06 
712.5 2.82669e-06 
712.939 2.68224e-06 
713.379 2.56035e-06 
713.818 2.45875e-06 
714.258 2.37482e-06 
714.697 2.30602e-06 
715.137 2.25015e-06 
715.576 2.20542e-06 
716.016 2.17041e-06 
716.455 2.14407e-06 
716.895 2.12565e-06 
717.334 2.11471e-06 
717.773 2.11107e-06 
718.213 2.11481e-06 
718.652 2.12627e-06 
719.092 2.14608e-06 
719.531 2.17517e-06 
719.971 2.21478e-06 
720.41 2.26656e-06 
720.85 2.33251e-06 
721.289 2.41503e-06 
721.729 2.51671e-06 
722.168 2.64008e-06 
722.607 2.78687e-06 
723.047 2.95684e-06 
723.486 3.14608e-06 
723.926 3.34527e-06 
724.365 3.53897e-06 
724.805 3.70739e-06 
725.244 3.83047e-06 
725.684 3.89204e-06 
726.123 3.88231e-06 
726.562 3.79963e-06 
727.002 3.65256e-06 
727.441 3.45948e-06 
727.881 3.2436e-06 
728.32 3.02623e-06 
728.76 2.82231e-06 
729.199 2.63983e-06 
729.639 2.48134e-06 
730.078 2.34615e-06 
730.518 2.23201e-06 
730.957 2.13614e-06 
731.396 2.05579e-06 
731.836 1.98852e-06 
732.275 1.93225e-06 
732.715 1.88528e-06 
733.154 1.84626e-06 
733.594 1.8141e-06 
734.033 1.78798e-06 
734.473 1.76731e-06 
734.912 1.75167e-06 
735.352 1.74083e-06 
735.791 1.7347e-06 
736.23 1.73337e-06 
736.67 1.73709e-06 
737.109 1.74627e-06 
737.549 1.76149e-06 
737.988 1.78348e-06 
738.428 1.81305e-06 
738.867 1.85098e-06 
739.307 1.89768e-06 
739.746 1.9527e-06 
740.186 2.01392e-06 
740.625 2.07656e-06 
741.064 2.13275e-06 
741.504 2.17238e-06 
741.943 2.18613e-06 
742.383 2.16957e-06 
742.822 2.12544e-06 
743.262 2.0621e-06 
743.701 1.98969e-06 
744.141 1.91668e-06 
744.58 1.84849e-06 
745.02 1.78775e-06 
745.459 1.73515e-06 
745.898 1.69031e-06 
746.338 1.65241e-06 
746.777 1.62045e-06 
747.217 1.59351e-06 
747.656 1.57073e-06 
748.096 1.55142e-06 
748.535 1.53499e-06 
748.975 1.52095e-06 
749.414 1.50891e-06 
749.854 1.49854e-06 
750.293 1.4896e-06 
750.732 1.48185e-06 
751.172 1.47512e-06 
751.611 1.46927e-06 
752.051 1.46418e-06 
752.49 1.45975e-06 
752.93 1.45588e-06 
753.369 1.45252e-06 
753.809 1.44959e-06 
754.248 1.44705e-06 
754.688 1.44486e-06 
755.127 1.44297e-06 
755.566 1.44135e-06 
756.006 1.43997e-06 
756.445 1.43882e-06 
756.885 1.43786e-06 
757.324 1.43708e-06 
757.764 1.43646e-06 
758.203 1.43599e-06 
758.643 1.43565e-06 
759.082 1.43543e-06 
759.521 1.43531e-06 
759.961 1.4353e-06 
760.4 1.43538e-06 
760.84 1.43554e-06 
761.279 1.43578e-06 
761.719 1.43609e-06 
762.158 1.43645e-06 
762.598 1.43688e-06 
763.037 1.43735e-06 
763.477 1.43788e-06 
763.916 1.43844e-06 
764.355 1.43904e-06 
764.795 1.43968e-06 
765.234 1.44035e-06 
765.674 1.44104e-06 
766.113 1.44175e-06 
766.553 1.44249e-06 
766.992 1.44324e-06 
767.432 1.444e-06 
767.871 1.44478e-06 
768.311 1.44556e-06 
768.75 1.44635e-06 
769.189 1.44714e-06 
769.629 1.44794e-06 
770.068 1.44874e-06 
770.508 1.44953e-06 
770.947 1.45032e-06 
771.387 1.45111e-06 
771.826 1.45189e-06 
772.266 1.45267e-06 
772.705 1.45343e-06 
773.145 1.45419e-06 
773.584 1.45494e-06 
774.023 1.45569e-06 
774.463 1.45642e-06 
774.902 1.45715e-06 
775.342 1.45787e-06 
775.781 1.45859e-06 
776.221 1.45931e-06 
776.66 1.46003e-06 
777.1 1.46075e-06 
777.539 1.46148e-06 
777.979 1.46223e-06 
778.418 1.463e-06 
778.857 1.46379e-06 
779.297 1.46463e-06 
779.736 1.46551e-06 
780.176 1.46644e-06 
780.615 1.46745e-06 
781.055 1.46855e-06 
781.494 1.46975e-06 
781.934 1.47108e-06 
782.373 1.47255e-06 
782.812 1.47421e-06 
783.252 1.47608e-06 
783.691 1.4782e-06 
784.131 1.48061e-06 
784.57 1.48337e-06 
785.01 1.48654e-06 
785.449 1.49019e-06 
785.889 1.49439e-06 
786.328 1.49926e-06 
786.768 1.50491e-06 
787.207 1.51148e-06 
787.646 1.51914e-06 
788.086 1.52809e-06 
788.525 1.53857e-06 
788.965 1.55088e-06 
789.404 1.56539e-06 
789.844 1.58253e-06 
790.283 1.60285e-06 
790.723 1.627e-06 
791.162 1.65582e-06 
791.602 1.6903e-06 
792.041 1.73165e-06 
792.48 1.78133e-06 
792.92 1.84099e-06 
793.359 1.91245e-06 
793.799 1.99742e-06 
794.238 2.09703e-06 
794.678 2.21094e-06 
795.117 2.33591e-06 
795.557 2.46406e-06 
795.996 2.58169e-06 
796.436 2.67053e-06 
796.875 2.71275e-06 
797.314 2.69847e-06 
797.754 2.63071e-06 
798.193 2.52383e-06 
798.633 2.39663e-06 
799.072 2.26567e-06 
799.512 2.14204e-06 
799.951 2.03143e-06 
800.391 1.93568e-06 
800.83 1.85441e-06 
801.27 1.7862e-06 
801.709 1.72933e-06 
802.148 1.68208e-06 
802.588 1.64294e-06 
803.027 1.61064e-06 
803.467 1.58414e-06 
803.906 1.56261e-06 
804.346 1.54543e-06 
804.785 1.53211e-06 
805.225 1.52231e-06 
805.664 1.51582e-06 
806.104 1.51254e-06 
806.543 1.51246e-06 
806.982 1.5157e-06 
807.422 1.52248e-06 
807.861 1.53315e-06 
808.301 1.54819e-06 
808.74 1.56824e-06 
809.18 1.59411e-06 
809.619 1.62679e-06 
810.059 1.66743e-06 
810.498 1.71725e-06 
810.938 1.77736e-06 
811.377 1.84836e-06 
811.816 1.92962e-06 
812.256 2.01824e-06 
812.695 2.10795e-06 
813.135 2.1887e-06 
813.574 2.2482e-06 
814.014 2.27606e-06 
814.453 2.26869e-06 
814.893 2.23131e-06 
815.332 2.17554e-06 
815.771 2.11434e-06 
816.211 2.05808e-06 
816.65 2.01286e-06 
817.09 1.98055e-06 
817.529 1.95937e-06 
817.969 1.9445e-06 
818.408 1.92908e-06 
818.848 1.90617e-06 
819.287 1.87124e-06 
819.727 1.82398e-06 
820.166 1.76795e-06 
820.605 1.7084e-06 
821.045 1.65013e-06 
821.484 1.59631e-06 
821.924 1.54849e-06 
822.363 1.50698e-06 
822.803 1.47144e-06 
823.242 1.44121e-06 
823.682 1.41555e-06 
824.121 1.39377e-06 
824.561 1.37522e-06 
825 1.3594e-06 
825.439 1.34584e-06 
825.879 1.33419e-06 
826.318 1.32415e-06 
826.758 1.31546e-06 
827.197 1.30793e-06 
827.637 1.30138e-06 
828.076 1.29568e-06 
828.516 1.29071e-06 
828.955 1.28638e-06 
829.395 1.2826e-06 
829.834 1.27931e-06 
830.273 1.27645e-06 
830.713 1.27396e-06 
831.152 1.27181e-06 
831.592 1.26996e-06 
832.031 1.26838e-06 
832.471 1.26704e-06 
832.91 1.26591e-06 
833.35 1.26498e-06 
833.789 1.26422e-06 
834.229 1.26363e-06 
834.668 1.26318e-06 
835.107 1.26287e-06 
835.547 1.26267e-06 
835.986 1.26259e-06 
836.426 1.26262e-06 
836.865 1.26274e-06 
837.305 1.26294e-06 
837.744 1.26323e-06 
838.184 1.26359e-06 
838.623 1.26403e-06 
839.062 1.26452e-06 
839.502 1.26508e-06 
839.941 1.2657e-06 
840.381 1.26637e-06 
840.82 1.26709e-06 
841.26 1.26785e-06 
841.699 1.26866e-06 
842.139 1.26951e-06 
842.578 1.2704e-06 
843.018 1.27133e-06 
843.457 1.27229e-06 
843.896 1.27328e-06 
844.336 1.27431e-06 
844.775 1.27536e-06 
845.215 1.27644e-06 
845.654 1.27755e-06 
846.094 1.27868e-06 
846.533 1.27984e-06 
846.973 1.28102e-06 
847.412 1.28223e-06 
847.852 1.28345e-06 
848.291 1.28469e-06 
848.73 1.28596e-06 
849.17 1.28724e-06 
849.609 1.28854e-06 
850.049 1.28985e-06 
850.488 1.29119e-06 
850.928 1.29253e-06 
851.367 1.2939e-06 
851.807 1.29527e-06 
852.246 1.29667e-06 
852.686 1.29807e-06 
853.125 1.29949e-06 
853.564 1.30092e-06 
854.004 1.30236e-06 
854.443 1.30381e-06 
854.883 1.30528e-06 
855.322 1.30676e-06 
855.762 1.30824e-06 
856.201 1.30974e-06 
856.641 1.31125e-06 
857.08 1.31276e-06 
857.52 1.31429e-06 
857.959 1.31582e-06 
858.398 1.31737e-06 
858.838 1.31892e-06 
859.277 1.32048e-06 
859.717 1.32205e-06 
860.156 1.32362e-06 
860.596 1.3252e-06 
861.035 1.32679e-06 
861.475 1.32839e-06 
861.914 1.32999e-06 
862.354 1.3316e-06 
862.793 1.33322e-06 
863.232 1.33484e-06 
863.672 1.33647e-06 
864.111 1.3381e-06 
864.551 1.33974e-06 
864.99 1.34139e-06 
865.43 1.34303e-06 
865.869 1.34469e-06 
866.309 1.34634e-06 
866.748 1.348e-06 
867.188 1.34967e-06 
867.627 1.35134e-06 
868.066 1.35301e-06 
868.506 1.35468e-06 
868.945 1.35636e-06 
869.385 1.35804e-06 
869.824 1.35972e-06 
870.264 1.3614e-06 
870.703 1.36308e-06 
871.143 1.36476e-06 
871.582 1.36645e-06 
872.021 1.36813e-06 
872.461 1.36982e-06 
872.9 1.3715e-06 
873.34 1.37318e-06 
873.779 1.37486e-06 
874.219 1.37654e-06 
874.658 1.37822e-06 
875.098 1.37989e-06 
875.537 1.38156e-06 
875.977 1.38322e-06 
876.416 1.38488e-06 
876.855 1.38654e-06 
877.295 1.38818e-06 
877.734 1.38983e-06 
878.174 1.39146e-06 
878.613 1.39309e-06 
879.053 1.39471e-06 
879.492 1.39632e-06 
879.932 1.39792e-06 
880.371 1.3995e-06 
880.811 1.40108e-06 
881.25 1.40265e-06 
881.689 1.4042e-06 
882.129 1.40574e-06 
882.568 1.40727e-06 
883.008 1.40878e-06 
883.447 1.41027e-06 
883.887 1.41175e-06 
884.326 1.41322e-06 
884.766 1.41466e-06 
885.205 1.41609e-06 
885.645 1.41749e-06 
886.084 1.41888e-06 
886.523 1.42025e-06 
886.963 1.4216e-06 
887.402 1.42293e-06 
887.842 1.42424e-06 
888.281 1.42553e-06 
888.721 1.42679e-06 
889.16 1.42804e-06 
889.6 1.42927e-06 
890.039 1.43047e-06 
890.479 1.43166e-06 
890.918 1.43283e-06 
891.357 1.43398e-06 
891.797 1.43512e-06 
892.236 1.43625e-06 
892.676 1.43736e-06 
893.115 1.43846e-06 
893.555 1.43956e-06 
893.994 1.44066e-06 
894.434 1.44176e-06 
894.873 1.44287e-06 
895.312 1.44399e-06 
895.752 1.44513e-06 
896.191 1.44631e-06 
896.631 1.44752e-06 
897.07 1.44878e-06 
897.51 1.45009e-06 
897.949 1.45149e-06 
898.389 1.45297e-06 
898.828 1.45456e-06 
899.268 1.45628e-06 
899.707 1.45815e-06 
900.146 1.4602e-06 
900.586 1.46247e-06 
901.025 1.46499e-06 
901.465 1.4678e-06 
901.904 1.47096e-06 
902.344 1.47452e-06 
902.783 1.47856e-06 
903.223 1.48316e-06 
903.662 1.48841e-06 
904.102 1.49443e-06 
904.541 1.50136e-06 
904.98 1.50937e-06 
905.42 1.51865e-06 
905.859 1.52946e-06 
906.299 1.54207e-06 
906.738 1.55686e-06 
907.178 1.57427e-06 
907.617 1.59484e-06 
908.057 1.61923e-06 
908.496 1.64827e-06 
908.936 1.68294e-06 
909.375 1.72444e-06 
909.814 1.77415e-06 
910.254 1.83359e-06 
910.693 1.90426e-06 
911.133 1.98729e-06 
911.572 2.08274e-06 
912.012 2.18853e-06 
912.451 2.29892e-06 
912.891 2.40343e-06 
913.33 2.48719e-06 
913.77 2.53449e-06 
914.209 2.53483e-06 
914.648 2.488e-06 
915.088 2.40421e-06 
915.527 2.29902e-06 
915.967 2.18737e-06 
916.406 2.07993e-06 
916.846 1.98261e-06 
917.285 1.89768e-06 
917.725 1.82515e-06 
918.164 1.76395e-06 
918.604 1.71259e-06 
919.043 1.66956e-06 
919.482 1.63346e-06 
919.922 1.6031e-06 
920.361 1.57749e-06 
920.801 1.5558e-06 
921.24 1.53737e-06 
921.68 1.52164e-06 
922.119 1.50817e-06 
922.559 1.49661e-06 
922.998 1.48665e-06 
923.438 1.47805e-06 
923.877 1.47061e-06 
924.316 1.46417e-06 
924.756 1.45859e-06 
925.195 1.45375e-06 
925.635 1.44955e-06 
926.074 1.44592e-06 
926.514 1.44278e-06 
926.953 1.44007e-06 
927.393 1.43775e-06 
927.832 1.43577e-06 
928.271 1.43409e-06 
928.711 1.43267e-06 
929.15 1.4315e-06 
929.59 1.43055e-06 
930.029 1.42979e-06 
930.469 1.4292e-06 
930.908 1.42877e-06 
931.348 1.42849e-06 
931.787 1.42833e-06 
932.227 1.4283e-06 
932.666 1.42837e-06 
933.105 1.42855e-06 
933.545 1.42881e-06 
933.984 1.42916e-06 
934.424 1.42958e-06 
934.863 1.43008e-06 
935.303 1.43064e-06 
935.742 1.43127e-06 
936.182 1.43194e-06 
936.621 1.43268e-06 
937.061 1.43345e-06 
937.5 1.43428e-06 
937.939 1.43515e-06 
938.379 1.43605e-06 
938.818 1.43699e-06 
939.258 1.43797e-06 
939.697 1.43898e-06 
940.137 1.44002e-06 
940.576 1.44108e-06 
941.016 1.44218e-06 
941.455 1.4433e-06 
941.895 1.44444e-06 
942.334 1.4456e-06 
942.773 1.44678e-06 
943.213 1.44799e-06 
943.652 1.44921e-06 
944.092 1.45045e-06 
944.531 1.45171e-06 
944.971 1.45298e-06 
945.41 1.45427e-06 
945.85 1.45556e-06 
946.289 1.45688e-06 
946.729 1.4582e-06 
947.168 1.45954e-06 
947.607 1.46089e-06 
948.047 1.46225e-06 
948.486 1.46361e-06 
948.926 1.46499e-06 
949.365 1.46638e-06 
949.805 1.46777e-06 
950.244 1.46917e-06 
950.684 1.47058e-06 
951.123 1.47199e-06 
951.562 1.47341e-06 
952.002 1.47483e-06 
952.441 1.47626e-06 
952.881 1.4777e-06 
953.32 1.47913e-06 
953.76 1.48057e-06 
954.199 1.48202e-06 
954.639 1.48346e-06 
955.078 1.48491e-06 
955.518 1.48636e-06 
955.957 1.4878e-06 
956.396 1.48925e-06 
956.836 1.4907e-06 
957.275 1.49215e-06 
957.715 1.49359e-06 
958.154 1.49504e-06 
958.594 1.49648e-06 
959.033 1.49791e-06 
959.473 1.49935e-06 
959.912 1.50078e-06 
960.352 1.5022e-06 
960.791 1.50362e-06 
961.23 1.50503e-06 
961.67 1.50643e-06 
962.109 1.50783e-06 
962.549 1.50921e-06 
962.988 1.51059e-06 
963.428 1.51196e-06 
963.867 1.51332e-06 
964.307 1.51466e-06 
964.746 1.51599e-06 
965.186 1.51731e-06 
965.625 1.51862e-06 
966.064 1.51991e-06 
966.504 1.52119e-06 
966.943 1.52245e-06 
967.383 1.5237e-06 
967.822 1.52492e-06 
968.262 1.52613e-06 
968.701 1.52733e-06 
969.141 1.5285e-06 
969.58 1.52965e-06 
970.02 1.53078e-06 
970.459 1.5319e-06 
970.898 1.53299e-06 
971.338 1.53406e-06 
971.777 1.53511e-06 
972.217 1.53615e-06 
972.656 1.53716e-06 
973.096 1.53815e-06 
973.535 1.53912e-06 
973.975 1.54008e-06 
974.414 1.54101e-06 
974.854 1.54194e-06 
975.293 1.54284e-06 
975.732 1.54374e-06 
976.172 1.54463e-06 
976.611 1.54551e-06 
977.051 1.54639e-06 
977.49 1.54728e-06 
977.93 1.54817e-06 
978.369 1.54907e-06 
978.809 1.55e-06 
979.248 1.55096e-06 
979.688 1.55195e-06 
980.127 1.55299e-06 
980.566 1.5541e-06 
981.006 1.55528e-06 
981.445 1.55656e-06 
981.885 1.55794e-06 
982.324 1.55947e-06 
982.764 1.56116e-06 
983.203 1.56304e-06 
983.643 1.56515e-06 
984.082 1.56753e-06 
984.521 1.57024e-06 
984.961 1.57334e-06 
985.4 1.57688e-06 
985.84 1.58096e-06 
986.279 1.58569e-06 
986.719 1.59117e-06 
987.158 1.59756e-06 
987.598 1.60503e-06 
988.037 1.61381e-06 
988.477 1.62415e-06 
988.916 1.63638e-06 
989.355 1.6509e-06 
989.795 1.66818e-06 
990.234 1.6888e-06 
990.674 1.71345e-06 
991.113 1.74288e-06 
991.553 1.7779e-06 
991.992 1.8192e-06 
992.432 1.86713e-06 
992.871 1.92119e-06 
993.311 1.97946e-06 
993.75 2.0379e-06 
994.189 2.09026e-06 
994.629 2.12926e-06 
995.068 2.14914e-06 
995.508 2.14853e-06 
995.947 2.13132e-06 
996.387 2.10499e-06 
996.826 2.07771e-06 
997.266 2.05616e-06 
997.705 2.0448e-06 
998.145 2.04613e-06 
998.584 2.06121e-06 
999.023 2.08978e-06 
999.463 2.13003e-06 
999.902 2.17788e-06 
1000.34 2.22637e-06 
1000.78 2.2657e-06 
1001.22 2.28535e-06 
1001.66 2.27767e-06 
1002.1 2.24139e-06 
1002.54 2.18201e-06 
1002.98 2.10901e-06 
1003.42 2.03187e-06 
1003.86 1.95758e-06 
1004.3 1.8901e-06 
1004.74 1.83098e-06 
1005.18 1.78029e-06 
1005.62 1.73731e-06 
1006.05 1.70107e-06 
1006.49 1.67054e-06 
1006.93 1.64479e-06 
1007.37 1.62301e-06 
1007.81 1.60452e-06 
1008.25 1.58877e-06 
1008.69 1.5753e-06 
1009.13 1.56373e-06 
1009.57 1.55375e-06 
1010.01 1.54513e-06 
1010.45 1.53765e-06 
1010.89 1.53115e-06 
1011.33 1.52548e-06 
1011.77 1.52053e-06 
1012.21 1.51621e-06 
1012.65 1.51242e-06 
1013.09 1.50911e-06 
1013.53 1.50622e-06 
1013.96 1.50369e-06 
1014.4 1.50148e-06 
1014.84 1.49956e-06 
1015.28 1.4979e-06 
1015.72 1.49646e-06 
1016.16 1.49523e-06 
1016.6 1.49418e-06 
1017.04 1.49329e-06 
1017.48 1.49255e-06 
1017.92 1.49195e-06 
1018.36 1.49147e-06 
1018.8 1.4911e-06 
1019.24 1.49084e-06 
1019.68 1.49066e-06 
1020.12 1.49058e-06 
1020.56 1.49057e-06 
1021 1.49063e-06 
1021.44 1.49075e-06 
1021.88 1.49094e-06 
