#energy geo_1 
600 1.95888e-06 
600.439 1.94861e-06 
600.879 1.93802e-06 
601.318 1.92713e-06 
601.758 1.91595e-06 
602.197 1.90455e-06 
602.637 1.89295e-06 
603.076 1.88122e-06 
603.516 1.86937e-06 
603.955 1.85749e-06 
604.395 1.84569e-06 
604.834 1.83405e-06 
605.273 1.82271e-06 
605.713 1.81179e-06 
606.152 1.80148e-06 
606.592 1.79201e-06 
607.031 1.78366e-06 
607.471 1.77677e-06 
607.91 1.77175e-06 
608.35 1.76914e-06 
608.789 1.76966e-06 
609.229 1.77423e-06 
609.668 1.78404e-06 
610.107 1.80072e-06 
610.547 1.82652e-06 
610.986 1.86459e-06 
611.426 1.91946e-06 
611.865 1.99788e-06 
612.305 2.11017e-06 
612.744 2.27281e-06 
613.184 2.51329e-06 
613.623 2.88013e-06 
614.062 3.46471e-06 
614.502 4.45289e-06 
614.941 6.25697e-06 
615.381 9.85026e-06 
615.82 1.72144e-05 
616.26 2.70337e-05 
616.699 2.38252e-05 
617.139 1.39246e-05 
617.578 8.18147e-06 
618.018 5.37093e-06 
618.457 3.9021e-06 
618.896 3.06163e-06 
619.336 2.54222e-06 
619.775 2.20086e-06 
620.215 1.96534e-06 
620.654 1.79634e-06 
621.094 1.67113e-06 
621.533 1.57586e-06 
621.973 1.50175e-06 
622.412 1.443e-06 
622.852 1.39565e-06 
623.291 1.35695e-06 
623.73 1.32494e-06 
624.17 1.29816e-06 
624.609 1.27554e-06 
625.049 1.25627e-06 
625.488 1.23974e-06 
625.928 1.22545e-06 
626.367 1.21302e-06 
626.807 1.20215e-06 
627.246 1.1926e-06 
627.686 1.18416e-06 
628.125 1.17668e-06 
628.564 1.17002e-06 
629.004 1.16407e-06 
629.443 1.15874e-06 
629.883 1.15394e-06 
630.322 1.14962e-06 
630.762 1.14572e-06 
631.201 1.14219e-06 
631.641 1.13899e-06 
632.08 1.13608e-06 
632.52 1.13343e-06 
632.959 1.13102e-06 
633.398 1.12881e-06 
633.838 1.1268e-06 
634.277 1.12497e-06 
634.717 1.12328e-06 
635.156 1.12174e-06 
635.596 1.12033e-06 
636.035 1.11904e-06 
636.475 1.11786e-06 
636.914 1.11678e-06 
637.354 1.11579e-06 
637.793 1.11488e-06 
638.232 1.11405e-06 
638.672 1.1133e-06 
639.111 1.11261e-06 
639.551 1.11198e-06 
639.99 1.11141e-06 
640.43 1.11089e-06 
640.869 1.11043e-06 
641.309 1.11e-06 
641.748 1.10963e-06 
642.188 1.10929e-06 
642.627 1.109e-06 
643.066 1.10873e-06 
643.506 1.10851e-06 
643.945 1.10831e-06 
644.385 1.10814e-06 
644.824 1.108e-06 
645.264 1.10789e-06 
645.703 1.1078e-06 
646.143 1.10774e-06 
646.582 1.1077e-06 
647.021 1.10768e-06 
647.461 1.10768e-06 
647.9 1.1077e-06 
648.34 1.10774e-06 
648.779 1.10779e-06 
649.219 1.10786e-06 
649.658 1.10795e-06 
650.098 1.10805e-06 
650.537 1.10817e-06 
650.977 1.1083e-06 
651.416 1.10844e-06 
651.855 1.1086e-06 
652.295 1.10877e-06 
652.734 1.10895e-06 
653.174 1.10914e-06 
653.613 1.10934e-06 
654.053 1.10955e-06 
654.492 1.10977e-06 
654.932 1.11e-06 
655.371 1.11024e-06 
655.811 1.11049e-06 
656.25 1.11075e-06 
656.689 1.11101e-06 
657.129 1.11129e-06 
657.568 1.11157e-06 
658.008 1.11186e-06 
658.447 1.11215e-06 
658.887 1.11245e-06 
659.326 1.11276e-06 
659.766 1.11308e-06 
660.205 1.1134e-06 
660.645 1.11373e-06 
661.084 1.11406e-06 
661.523 1.1144e-06 
661.963 1.11475e-06 
662.402 1.1151e-06 
662.842 1.11546e-06 
663.281 1.11582e-06 
663.721 1.11619e-06 
664.16 1.11656e-06 
664.6 1.11694e-06 
665.039 1.11732e-06 
665.479 1.1177e-06 
665.918 1.1181e-06 
666.357 1.11849e-06 
666.797 1.11889e-06 
667.236 1.1193e-06 
667.676 1.1197e-06 
668.115 1.12012e-06 
668.555 1.12054e-06 
668.994 1.12096e-06 
669.434 1.12138e-06 
669.873 1.12181e-06 
670.312 1.12224e-06 
670.752 1.12268e-06 
671.191 1.12312e-06 
671.631 1.12357e-06 
672.07 1.12402e-06 
672.51 1.12447e-06 
672.949 1.12492e-06 
673.389 1.12538e-06 
673.828 1.12584e-06 
674.268 1.12631e-06 
674.707 1.12678e-06 
675.146 1.12725e-06 
675.586 1.12773e-06 
676.025 1.12821e-06 
676.465 1.12869e-06 
676.904 1.12918e-06 
677.344 1.12967e-06 
677.783 1.13016e-06 
678.223 1.13065e-06 
678.662 1.13115e-06 
679.102 1.13165e-06 
679.541 1.13216e-06 
679.98 1.13267e-06 
680.42 1.13318e-06 
680.859 1.1337e-06 
681.299 1.13421e-06 
681.738 1.13473e-06 
682.178 1.13526e-06 
682.617 1.13578e-06 
683.057 1.13631e-06 
683.496 1.13685e-06 
683.936 1.13739e-06 
684.375 1.13792e-06 
684.814 1.13847e-06 
685.254 1.13901e-06 
685.693 1.13956e-06 
686.133 1.14011e-06 
686.572 1.14067e-06 
687.012 1.14123e-06 
687.451 1.14179e-06 
687.891 1.14235e-06 
688.33 1.14292e-06 
688.77 1.14349e-06 
689.209 1.14406e-06 
689.648 1.14464e-06 
690.088 1.14522e-06 
690.527 1.1458e-06 
690.967 1.14638e-06 
691.406 1.14697e-06 
691.846 1.14756e-06 
692.285 1.14816e-06 
692.725 1.14876e-06 
693.164 1.14936e-06 
693.604 1.14996e-06 
694.043 1.15057e-06 
694.482 1.15118e-06 
694.922 1.15179e-06 
695.361 1.15241e-06 
695.801 1.15303e-06 
696.24 1.15365e-06 
696.68 1.15428e-06 
697.119 1.15491e-06 
697.559 1.15554e-06 
697.998 1.15618e-06 
698.438 1.15682e-06 
698.877 1.15746e-06 
699.316 1.15811e-06 
699.756 1.15876e-06 
700.195 1.15941e-06 
700.635 1.16007e-06 
701.074 1.16073e-06 
701.514 1.16139e-06 
701.953 1.16205e-06 
702.393 1.16272e-06 
702.832 1.1634e-06 
703.271 1.16407e-06 
703.711 1.16475e-06 
704.15 1.16544e-06 
704.59 1.16612e-06 
705.029 1.16681e-06 
705.469 1.16751e-06 
705.908 1.1682e-06 
706.348 1.1689e-06 
706.787 1.16961e-06 
707.227 1.17031e-06 
707.666 1.17102e-06 
708.105 1.17174e-06 
708.545 1.17245e-06 
708.984 1.17317e-06 
709.424 1.1739e-06 
709.863 1.17462e-06 
710.303 1.17535e-06 
710.742 1.17608e-06 
711.182 1.17682e-06 
711.621 1.17756e-06 
712.061 1.1783e-06 
712.5 1.17905e-06 
712.939 1.1798e-06 
713.379 1.18055e-06 
713.818 1.1813e-06 
714.258 1.18206e-06 
714.697 1.18282e-06 
715.137 1.18358e-06 
715.576 1.18434e-06 
716.016 1.18511e-06 
716.455 1.18588e-06 
716.895 1.18665e-06 
717.334 1.18742e-06 
717.773 1.1882e-06 
718.213 1.18898e-06 
718.652 1.18976e-06 
719.092 1.19054e-06 
719.531 1.19132e-06 
719.971 1.1921e-06 
720.41 1.19289e-06 
720.85 1.19367e-06 
721.289 1.19446e-06 
721.729 1.19524e-06 
722.168 1.19603e-06 
722.607 1.19682e-06 
723.047 1.1976e-06 
723.486 1.19839e-06 
723.926 1.19917e-06 
724.365 1.19995e-06 
724.805 1.20074e-06 
725.244 1.20152e-06 
725.684 1.2023e-06 
726.123 1.20307e-06 
726.562 1.20385e-06 
727.002 1.20462e-06 
727.441 1.20539e-06 
727.881 1.20615e-06 
728.32 1.20692e-06 
728.76 1.20767e-06 
729.199 1.20843e-06 
729.639 1.20918e-06 
730.078 1.20992e-06 
730.518 1.21066e-06 
730.957 1.2114e-06 
731.396 1.21212e-06 
731.836 1.21285e-06 
732.275 1.21357e-06 
732.715 1.21428e-06 
733.154 1.21498e-06 
733.594 1.21568e-06 
734.033 1.21638e-06 
734.473 1.21706e-06 
734.912 1.21774e-06 
735.352 1.21842e-06 
735.791 1.21909e-06 
736.23 1.21976e-06 
736.67 1.22042e-06 
737.109 1.22108e-06 
737.549 1.22173e-06 
737.988 1.22239e-06 
738.428 1.22304e-06 
738.867 1.22369e-06 
739.307 1.22435e-06 
739.746 1.22501e-06 
740.186 1.22568e-06 
740.625 1.22636e-06 
741.064 1.22706e-06 
741.504 1.22777e-06 
741.943 1.2285e-06 
742.383 1.22925e-06 
742.822 1.23004e-06 
743.262 1.23087e-06 
743.701 1.23174e-06 
744.141 1.23267e-06 
744.58 1.23367e-06 
745.02 1.23474e-06 
745.459 1.2359e-06 
745.898 1.23716e-06 
746.338 1.23855e-06 
746.777 1.24009e-06 
747.217 1.24179e-06 
747.656 1.2437e-06 
748.096 1.24584e-06 
748.535 1.24826e-06 
748.975 1.251e-06 
749.414 1.25413e-06 
749.854 1.25771e-06 
750.293 1.26182e-06 
750.732 1.26658e-06 
751.172 1.2721e-06 
751.611 1.27854e-06 
752.051 1.28608e-06 
752.49 1.29495e-06 
752.93 1.30543e-06 
753.369 1.31787e-06 
753.809 1.33269e-06 
754.248 1.35039e-06 
754.688 1.37158e-06 
755.127 1.39691e-06 
755.566 1.4271e-06 
756.006 1.46272e-06 
756.445 1.504e-06 
756.885 1.55037e-06 
757.324 1.59983e-06 
757.764 1.64832e-06 
758.203 1.68959e-06 
758.643 1.71632e-06 
759.082 1.72271e-06 
759.521 1.70717e-06 
759.961 1.67319e-06 
760.4 1.62748e-06 
760.84 1.57715e-06 
761.279 1.52763e-06 
761.719 1.48213e-06 
762.158 1.44205e-06 
762.598 1.40759e-06 
763.037 1.37837e-06 
763.477 1.35374e-06 
763.916 1.33301e-06 
764.355 1.31553e-06 
764.795 1.30074e-06 
765.234 1.28818e-06 
765.674 1.27745e-06 
766.113 1.26822e-06 
766.553 1.26026e-06 
766.992 1.25334e-06 
767.432 1.24731e-06 
767.871 1.24201e-06 
768.311 1.23734e-06 
768.75 1.23322e-06 
769.189 1.22957e-06 
769.629 1.22633e-06 
770.068 1.22345e-06 
770.508 1.22091e-06 
770.947 1.21866e-06 
771.387 1.2167e-06 
771.826 1.21502e-06 
772.266 1.21359e-06 
772.705 1.21243e-06 
773.145 1.21155e-06 
773.584 1.21095e-06 
774.023 1.21065e-06 
774.463 1.21068e-06 
774.902 1.21107e-06 
775.342 1.21186e-06 
775.781 1.21311e-06 
776.221 1.21487e-06 
776.66 1.21721e-06 
777.1 1.22022e-06 
777.539 1.22401e-06 
777.979 1.22871e-06 
778.418 1.23446e-06 
778.857 1.24144e-06 
779.297 1.24988e-06 
779.736 1.26003e-06 
780.176 1.27221e-06 
780.615 1.28681e-06 
781.055 1.30431e-06 
781.494 1.3253e-06 
781.934 1.35047e-06 
782.373 1.38073e-06 
782.812 1.41714e-06 
783.252 1.46103e-06 
783.691 1.51399e-06 
784.131 1.57792e-06 
784.57 1.65494e-06 
785.01 1.7473e-06 
785.449 1.85697e-06 
785.889 1.98487e-06 
786.328 2.12957e-06 
786.768 2.28533e-06 
787.207 2.43999e-06 
787.646 2.57425e-06 
788.086 2.66467e-06 
788.525 2.69148e-06 
788.965 2.64753e-06 
789.404 2.54205e-06 
789.844 2.39577e-06 
790.283 2.23181e-06 
790.723 2.06852e-06 
791.162 1.91717e-06 
791.602 1.78291e-06 
792.041 1.66681e-06 
792.48 1.56779e-06 
792.92 1.48385e-06 
793.359 1.41275e-06 
793.799 1.3524e-06 
794.238 1.30094e-06 
794.678 1.25682e-06 
795.117 1.21875e-06 
795.557 1.18569e-06 
795.996 1.15677e-06 
796.436 1.13131e-06 
796.875 1.10874e-06 
797.314 1.08863e-06 
797.754 1.07059e-06 
798.193 1.05434e-06 
798.633 1.03963e-06 
799.072 1.02627e-06 
799.512 1.01411e-06 
799.951 1.00304e-06 
800.391 9.92947e-07 
800.83 9.8378e-07 
801.27 9.75491e-07 
801.709 9.6806e-07 
802.148 9.61482e-07 
802.588 9.55771e-07 
803.027 9.50964e-07 
803.467 9.47112e-07 
803.906 9.44292e-07 
804.346 9.42599e-07 
804.785 9.42157e-07 
805.225 9.43113e-07 
805.664 9.45649e-07 
806.104 9.4998e-07 
806.543 9.56371e-07 
806.982 9.65133e-07 
807.422 9.76639e-07 
807.861 9.91335e-07 
808.301 1.00976e-06 
808.74 1.03255e-06 
809.18 1.06049e-06 
809.619 1.09453e-06 
810.059 1.1358e-06 
810.498 1.18571e-06 
810.938 1.24598e-06 
811.377 1.3187e-06 
811.816 1.40647e-06 
812.256 1.51247e-06 
812.695 1.64058e-06 
813.135 1.79551e-06 
813.574 1.98283e-06 
814.014 2.20889e-06 
814.453 2.48043e-06 
814.893 2.80356e-06 
815.332 3.18166e-06 
815.771 3.61158e-06 
816.211 4.07802e-06 
816.65 4.54713e-06 
817.09 4.96346e-06 
817.529 5.25729e-06 
817.969 5.36626e-06 
818.408 5.263e-06 
818.848 4.96915e-06 
819.287 4.54389e-06 
819.727 4.05704e-06 
820.166 3.56637e-06 
820.605 3.10855e-06 
821.045 2.70115e-06 
821.484 2.34873e-06 
821.924 2.04864e-06 
822.363 1.79507e-06 
822.803 1.58134e-06 
823.242 1.40102e-06 
823.682 1.24844e-06 
824.121 1.11881e-06 
824.561 1.00812e-06 
825 9.13113e-07 
825.439 8.31135e-07 
825.879 7.60025e-07 
826.318 6.9802e-07 
826.758 6.43683e-07 
827.197 5.95837e-07 
827.637 5.53514e-07 
828.076 5.15911e-07 
828.516 4.82366e-07 
828.955 4.52323e-07 
829.395 4.25316e-07 
829.834 4.00953e-07 
830.273 3.78902e-07 
830.713 3.58883e-07 
831.152 3.40651e-07 
831.592 3.24002e-07 
832.031 3.08758e-07 
832.471 2.94764e-07 
832.91 2.81886e-07 
833.35 2.70009e-07 
833.789 2.59032e-07 
834.229 2.48864e-07 
834.668 2.39427e-07 
835.107 2.30653e-07 
835.547 2.2248e-07 
835.986 2.14854e-07 
836.426 2.07727e-07 
836.865 2.01055e-07 
837.305 1.94801e-07 
837.744 1.88929e-07 
838.184 1.83409e-07 
838.623 1.78213e-07 
839.062 1.73316e-07 
839.502 1.68694e-07 
839.941 1.64327e-07 
840.381 1.60197e-07 
840.82 1.56287e-07 
841.26 1.52581e-07 
841.699 1.49065e-07 
842.139 1.45725e-07 
842.578 1.4255e-07 
843.018 1.3953e-07 
843.457 1.36655e-07 
843.896 1.33914e-07 
844.336 1.313e-07 
844.775 1.28805e-07 
845.215 1.26422e-07 
845.654 1.24144e-07 
846.094 1.21965e-07 
846.533 1.19879e-07 
846.973 1.17882e-07 
847.412 1.15967e-07 
847.852 1.14131e-07 
848.291 1.12369e-07 
848.73 1.10677e-07 
849.17 1.09052e-07 
849.609 1.0749e-07 
850.049 1.05989e-07 
850.488 1.04544e-07 
850.928 1.03153e-07 
851.367 1.01813e-07 
851.807 1.00523e-07 
852.246 9.92788e-08 
852.686 9.80794e-08 
853.125 9.69221e-08 
853.564 9.58053e-08 
854.004 9.47272e-08 
854.443 9.36859e-08 
854.883 9.26798e-08 
855.322 9.17075e-08 
855.762 9.07672e-08 
856.201 8.9858e-08 
856.641 8.89783e-08 
857.08 8.81269e-08 
857.52 8.73028e-08 
857.959 8.65046e-08 
858.398 8.57316e-08 
858.838 8.49826e-08 
859.277 8.42567e-08 
859.717 8.3553e-08 
860.156 8.28706e-08 
860.596 8.22087e-08 
861.035 8.15667e-08 
861.475 8.09437e-08 
861.914 8.03391e-08 
862.354 7.97521e-08 
862.793 7.91822e-08 
863.232 7.86288e-08 
863.672 7.80911e-08 
864.111 7.75688e-08 
864.551 7.70613e-08 
864.99 7.6568e-08 
865.43 7.60887e-08 
865.869 7.56225e-08 
866.309 7.51694e-08 
866.748 7.47285e-08 
867.188 7.43e-08 
867.627 7.38831e-08 
868.066 7.34774e-08 
868.506 7.30827e-08 
868.945 7.26986e-08 
869.385 7.23248e-08 
869.824 7.1961e-08 
870.264 7.16069e-08 
870.703 7.12621e-08 
871.143 7.09265e-08 
871.582 7.05996e-08 
872.021 7.02814e-08 
872.461 6.99715e-08 
872.9 6.96696e-08 
873.34 6.93756e-08 
873.779 6.90893e-08 
874.219 6.88104e-08 
874.658 6.85386e-08 
875.098 6.8274e-08 
875.537 6.80161e-08 
875.977 6.77649e-08 
876.416 6.75202e-08 
876.855 6.72817e-08 
877.295 6.70493e-08 
877.734 6.6823e-08 
878.174 6.66024e-08 
878.613 6.63875e-08 
879.053 6.61782e-08 
879.492 6.59742e-08 
879.932 6.57755e-08 
880.371 6.55819e-08 
880.811 6.53932e-08 
881.25 6.52094e-08 
881.689 6.50304e-08 
882.129 6.48561e-08 
882.568 6.46862e-08 
883.008 6.45208e-08 
883.447 6.43596e-08 
883.887 6.42027e-08 
884.326 6.40499e-08 
884.766 6.39011e-08 
885.205 6.37563e-08 
885.645 6.36153e-08 
886.084 6.3478e-08 
886.523 6.33444e-08 
886.963 6.32144e-08 
887.402 6.3088e-08 
887.842 6.29649e-08 
888.281 6.28452e-08 
888.721 6.27288e-08 
889.16 6.26156e-08 
889.6 6.25056e-08 
890.039 6.23986e-08 
890.479 6.22946e-08 
890.918 6.21936e-08 
891.357 6.20955e-08 
891.797 6.20003e-08 
892.236 6.19079e-08 
892.676 6.1818e-08 
893.115 6.1731e-08 
893.555 6.16465e-08 
893.994 6.15645e-08 
894.434 6.14852e-08 
894.873 6.14082e-08 
895.312 6.13337e-08 
895.752 6.12615e-08 
896.191 6.11918e-08 
896.631 6.11241e-08 
897.07 6.10589e-08 
897.51 6.09957e-08 
897.949 6.09348e-08 
898.389 6.08759e-08 
898.828 6.08191e-08 
899.268 6.07644e-08 
899.707 6.07116e-08 
900.146 6.06609e-08 
900.586 6.0612e-08 
901.025 6.05651e-08 
901.465 6.052e-08 
901.904 6.04767e-08 
902.344 6.04353e-08 
902.783 6.03956e-08 
903.223 6.03576e-08 
903.662 6.03213e-08 
904.102 6.02868e-08 
904.541 6.02539e-08 
904.98 6.02226e-08 
905.42 6.01928e-08 
905.859 6.01647e-08 
906.299 6.0138e-08 
906.738 6.0113e-08 
907.178 6.00894e-08 
907.617 6.00672e-08 
908.057 6.00466e-08 
908.496 6.00273e-08 
908.936 6.00094e-08 
909.375 5.99929e-08 
909.814 5.99778e-08 
910.254 5.9964e-08 
910.693 5.99514e-08 
911.133 5.99402e-08 
911.572 5.99303e-08 
912.012 5.99216e-08 
912.451 5.99142e-08 
912.891 5.99079e-08 
913.33 5.99029e-08 
913.77 5.9899e-08 
914.209 5.98963e-08 
914.648 5.98948e-08 
915.088 5.98943e-08 
915.527 5.9895e-08 
915.967 5.98967e-08 
916.406 5.98996e-08 
916.846 5.99035e-08 
917.285 5.99084e-08 
917.725 5.99144e-08 
918.164 5.99214e-08 
918.604 5.99294e-08 
919.043 5.99384e-08 
919.482 5.99483e-08 
919.922 5.99593e-08 
920.361 5.99711e-08 
920.801 5.99839e-08 
921.24 5.99976e-08 
921.68 6.00123e-08 
922.119 6.00278e-08 
922.559 6.00442e-08 
922.998 6.00615e-08 
923.438 6.00796e-08 
923.877 6.00986e-08 
924.316 6.01184e-08 
924.756 6.0139e-08 
925.195 6.01605e-08 
925.635 6.01828e-08 
926.074 6.02058e-08 
926.514 6.02297e-08 
926.953 6.02543e-08 
927.393 6.02797e-08 
927.832 6.03058e-08 
928.271 6.03327e-08 
928.711 6.03603e-08 
929.15 6.03886e-08 
929.59 6.04176e-08 
930.029 6.04474e-08 
930.469 6.04778e-08 
930.908 6.05089e-08 
931.348 6.05408e-08 
931.787 6.05732e-08 
932.227 6.06064e-08 
932.666 6.06402e-08 
933.105 6.06746e-08 
933.545 6.07097e-08 
933.984 6.07454e-08 
934.424 6.07817e-08 
934.863 6.08187e-08 
935.303 6.08563e-08 
935.742 6.08944e-08 
936.182 6.09332e-08 
936.621 6.09725e-08 
937.061 6.10124e-08 
937.5 6.10529e-08 
937.939 6.10939e-08 
938.379 6.11355e-08 
938.818 6.11777e-08 
939.258 6.12204e-08 
939.697 6.12636e-08 
940.137 6.13074e-08 
940.576 6.13517e-08 
941.016 6.13965e-08 
941.455 6.14418e-08 
941.895 6.14876e-08 
942.334 6.1534e-08 
942.773 6.15808e-08 
943.213 6.16281e-08 
943.652 6.16759e-08 
944.092 6.17242e-08 
944.531 6.17729e-08 
944.971 6.18221e-08 
945.41 6.18718e-08 
945.85 6.19219e-08 
946.289 6.19725e-08 
946.729 6.20235e-08 
947.168 6.2075e-08 
947.607 6.21269e-08 
948.047 6.21792e-08 
948.486 6.22319e-08 
948.926 6.22851e-08 
949.365 6.23387e-08 
949.805 6.23927e-08 
950.244 6.24471e-08 
950.684 6.25019e-08 
951.123 6.25571e-08 
951.562 6.26126e-08 
952.002 6.26687e-08 
952.441 6.2725e-08 
952.881 6.27817e-08 
953.32 6.28389e-08 
953.76 6.28963e-08 
954.199 6.29542e-08 
954.639 6.30124e-08 
955.078 6.30709e-08 
955.518 6.31298e-08 
955.957 6.31891e-08 
956.396 6.32487e-08 
956.836 6.33087e-08 
957.275 6.33689e-08 
957.715 6.34296e-08 
958.154 6.34905e-08 
958.594 6.35518e-08 
959.033 6.36134e-08 
959.473 6.36753e-08 
959.912 6.37375e-08 
960.352 6.38e-08 
960.791 6.38628e-08 
961.23 6.3926e-08 
961.67 6.39894e-08 
962.109 6.40532e-08 
962.549 6.41172e-08 
962.988 6.41815e-08 
963.428 6.42461e-08 
963.867 6.4311e-08 
964.307 6.43761e-08 
964.746 6.44416e-08 
965.186 6.45073e-08 
965.625 6.45732e-08 
966.064 6.46395e-08 
966.504 6.4706e-08 
966.943 6.47727e-08 
967.383 6.48398e-08 
967.822 6.4907e-08 
968.262 6.49745e-08 
968.701 6.50423e-08 
969.141 6.51103e-08 
969.58 6.51786e-08 
970.02 6.5247e-08 
970.459 6.53158e-08 
970.898 6.53847e-08 
971.338 6.54539e-08 
971.777 6.55233e-08 
972.217 6.55929e-08 
972.656 6.56628e-08 
973.096 6.57328e-08 
973.535 6.58031e-08 
973.975 6.58736e-08 
974.414 6.59442e-08 
974.854 6.60151e-08 
975.293 6.60863e-08 
975.732 6.61575e-08 
976.172 6.62291e-08 
976.611 6.63007e-08 
977.051 6.63726e-08 
977.49 6.64447e-08 
977.93 6.6517e-08 
978.369 6.65894e-08 
978.809 6.6662e-08 
979.248 6.67349e-08 
979.688 6.68078e-08 
980.127 6.6881e-08 
980.566 6.69543e-08 
981.006 6.70278e-08 
981.445 6.71015e-08 
981.885 6.71753e-08 
982.324 6.72493e-08 
982.764 6.73234e-08 
983.203 6.73977e-08 
983.643 6.74722e-08 
984.082 6.75468e-08 
984.521 6.76216e-08 
984.961 6.76965e-08 
985.4 6.77715e-08 
985.84 6.78467e-08 
986.279 6.7922e-08 
986.719 6.79975e-08 
987.158 6.80731e-08 
987.598 6.81488e-08 
988.037 6.82247e-08 
988.477 6.83007e-08 
988.916 6.83769e-08 
989.355 6.84531e-08 
989.795 6.85295e-08 
990.234 6.8606e-08 
990.674 6.86826e-08 
991.113 6.87593e-08 
991.553 6.88362e-08 
991.992 6.89131e-08 
992.432 6.89902e-08 
992.871 6.90673e-08 
993.311 6.91446e-08 
993.75 6.9222e-08 
994.189 6.92995e-08 
994.629 6.9377e-08 
995.068 6.94547e-08 
995.508 6.95325e-08 
995.947 6.96103e-08 
996.387 6.96883e-08 
996.826 6.97663e-08 
997.266 6.98444e-08 
997.705 6.99226e-08 
998.145 7.00009e-08 
998.584 7.00793e-08 
999.023 7.01577e-08 
999.463 7.02363e-08 
999.902 7.03149e-08 
1000.34 7.03935e-08 
1000.78 7.04723e-08 
1001.22 7.05511e-08 
1001.66 7.063e-08 
1002.1 7.07089e-08 
1002.54 7.07879e-08 
1002.98 7.0867e-08 
1003.42 7.09461e-08 
1003.86 7.10253e-08 
1004.3 7.11045e-08 
1004.74 7.11838e-08 
1005.18 7.12632e-08 
1005.62 7.13425e-08 
1006.05 7.1422e-08 
1006.49 7.15015e-08 
1006.93 7.1581e-08 
1007.37 7.16606e-08 
1007.81 7.17402e-08 
1008.25 7.18198e-08 
1008.69 7.18996e-08 
1009.13 7.19793e-08 
1009.57 7.2059e-08 
1010.01 7.21388e-08 
1010.45 7.22186e-08 
1010.89 7.22985e-08 
1011.33 7.23783e-08 
1011.77 7.24583e-08 
1012.21 7.25382e-08 
1012.65 7.26181e-08 
1013.09 7.26981e-08 
1013.53 7.27781e-08 
1013.96 7.28581e-08 
1014.4 7.29381e-08 
1014.84 7.30181e-08 
1015.28 7.30981e-08 
1015.72 7.31782e-08 
1016.16 7.32583e-08 
1016.6 7.33383e-08 
1017.04 7.34184e-08 
1017.48 7.34985e-08 
1017.92 7.35785e-08 
1018.36 7.36586e-08 
1018.8 7.37387e-08 
1019.24 7.38187e-08 
1019.68 7.38988e-08 
1020.12 7.39788e-08 
1020.56 7.40589e-08 
1021 7.41389e-08 
1021.44 7.4219e-08 
1021.88 7.4299e-08 
1022.31 7.4379e-08 
