#energy geo_1 
600 5.75864e-06 
600.439 5.7551e-06 
600.879 5.75271e-06 
601.318 5.75178e-06 
601.758 5.75274e-06 
602.197 5.7558e-06 
602.637 5.76111e-06 
603.076 5.76861e-06 
603.516 5.77797e-06 
603.955 5.78888e-06 
604.395 5.80062e-06 
604.834 5.81237e-06 
605.273 5.82237e-06 
605.713 5.82699e-06 
606.152 5.82295e-06 
606.592 5.81006e-06 
607.031 5.79024e-06 
607.471 5.76712e-06 
607.91 5.74358e-06 
608.35 5.72161e-06 
608.789 5.70236e-06 
609.229 5.68706e-06 
609.668 5.67743e-06 
610.107 5.6762e-06 
610.547 5.6875e-06 
610.986 5.71829e-06 
611.426 5.77622e-06 
611.865 5.86832e-06 
612.305 6.00141e-06 
612.744 6.18612e-06 
613.184 6.44367e-06 
613.623 6.81774e-06 
614.062 7.39459e-06 
614.502 8.34332e-06 
614.941 1.00212e-05 
615.381 1.3248e-05 
615.82 1.99165e-05 
616.26 3.20742e-05 
616.699 3.75799e-05 
617.139 2.58592e-05 
617.578 1.61391e-05 
618.018 1.12724e-05 
618.457 8.81699e-06 
618.896 7.46236e-06 
619.336 6.65048e-06 
619.775 6.13191e-06 
620.215 5.78545e-06 
620.654 5.54712e-06 
621.094 5.38079e-06 
621.533 5.26383e-06 
621.973 5.18115e-06 
622.412 5.12104e-06 
622.852 5.0716e-06 
623.291 5.02095e-06 
623.73 4.96396e-06 
624.17 4.90083e-06 
624.609 4.83667e-06 
625.049 4.77702e-06 
625.488 4.72566e-06 
625.928 4.68401e-06 
626.367 4.65241e-06 
626.807 4.63111e-06 
627.246 4.62209e-06 
627.686 4.6307e-06 
628.125 4.66922e-06 
628.564 4.75354e-06 
629.004 4.89975e-06 
629.443 5.12286e-06 
629.883 5.44293e-06 
630.322 5.89603e-06 
630.762 6.55264e-06 
631.201 7.54904e-06 
631.641 9.14668e-06 
632.08 1.1881e-05 
632.52 1.69481e-05 
632.959 2.71718e-05 
633.398 4.76303e-05 
633.838 6.90632e-05 
634.277 5.45882e-05 
634.717 3.16571e-05 
635.156 1.90568e-05 
635.596 1.28416e-05 
636.035 9.54376e-06 
636.475 7.63136e-06 
636.914 6.43643e-06 
637.354 5.64439e-06 
637.793 5.09403e-06 
638.232 4.6969e-06 
638.672 4.40132e-06 
639.111 4.17558e-06 
639.551 3.99941e-06 
639.99 3.85938e-06 
640.43 3.74628e-06 
640.869 3.65366e-06 
641.309 3.57691e-06 
641.748 3.51261e-06 
642.188 3.45824e-06 
642.627 3.41188e-06 
643.066 3.37207e-06 
643.506 3.33766e-06 
643.945 3.30775e-06 
644.385 3.28165e-06 
644.824 3.25877e-06 
645.264 3.23866e-06 
645.703 3.22092e-06 
646.143 3.20524e-06 
646.582 3.19136e-06 
647.021 3.17903e-06 
647.461 3.16808e-06 
647.9 3.15832e-06 
648.34 3.14963e-06 
648.779 3.14188e-06 
649.219 3.13498e-06 
649.658 3.12885e-06 
650.098 3.12343e-06 
650.537 3.11865e-06 
650.977 3.11449e-06 
651.416 3.1109e-06 
651.855 3.10786e-06 
652.295 3.10536e-06 
652.734 3.10338e-06 
653.174 3.10189e-06 
653.613 3.1009e-06 
654.053 3.10038e-06 
654.492 3.10033e-06 
654.932 3.10072e-06 
655.371 3.10155e-06 
655.811 3.10279e-06 
656.25 3.10443e-06 
656.689 3.10647e-06 
657.129 3.10891e-06 
657.568 3.11179e-06 
658.008 3.11516e-06 
658.447 3.11913e-06 
658.887 3.12381e-06 
659.326 3.12936e-06 
659.766 3.13598e-06 
660.205 3.1439e-06 
660.645 3.15341e-06 
661.084 3.16486e-06 
661.523 3.17865e-06 
661.963 3.19531e-06 
662.402 3.21542e-06 
662.842 3.23971e-06 
663.281 3.26905e-06 
663.721 3.30441e-06 
664.16 3.3469e-06 
664.6 3.39766e-06 
665.039 3.45761e-06 
665.479 3.5271e-06 
665.918 3.60508e-06 
666.357 3.68809e-06 
666.797 3.76917e-06 
667.236 3.83777e-06 
667.676 3.88171e-06 
668.115 3.89162e-06 
668.555 3.86547e-06 
668.994 3.80965e-06 
669.434 3.73565e-06 
669.873 3.65516e-06 
670.312 3.57689e-06 
670.752 3.50585e-06 
671.191 3.4441e-06 
671.631 3.39185e-06 
672.07 3.34837e-06 
672.51 3.31256e-06 
672.949 3.28329e-06 
673.389 3.2595e-06 
673.828 3.24026e-06 
674.268 3.22484e-06 
674.707 3.21261e-06 
675.146 3.2031e-06 
675.586 3.19594e-06 
676.025 3.19084e-06 
676.465 3.18762e-06 
676.904 3.18614e-06 
677.344 3.18633e-06 
677.783 3.18817e-06 
678.223 3.19171e-06 
678.662 3.19707e-06 
679.102 3.2044e-06 
679.541 3.21395e-06 
679.98 3.22603e-06 
680.42 3.24101e-06 
680.859 3.25937e-06 
681.299 3.28161e-06 
681.738 3.30823e-06 
682.178 3.33961e-06 
682.617 3.37571e-06 
683.057 3.41565e-06 
683.496 3.45721e-06 
683.936 3.4963e-06 
684.375 3.52727e-06 
684.814 3.54423e-06 
685.254 3.5435e-06 
685.693 3.52546e-06 
686.133 3.49431e-06 
686.572 3.45603e-06 
687.012 3.41607e-06 
687.451 3.37817e-06 
687.891 3.34432e-06 
688.33 3.31522e-06 
688.77 3.2908e-06 
689.209 3.27064e-06 
689.648 3.25416e-06 
690.088 3.24081e-06 
690.527 3.23004e-06 
690.967 3.2214e-06 
691.406 3.21449e-06 
691.846 3.20898e-06 
692.285 3.20459e-06 
692.725 3.2011e-06 
693.164 3.19834e-06 
693.604 3.19619e-06 
694.043 3.19457e-06 
694.482 3.19343e-06 
694.922 3.19275e-06 
695.361 3.19253e-06 
695.801 3.19279e-06 
696.24 3.19355e-06 
696.68 3.19486e-06 
697.119 3.19674e-06 
697.559 3.19923e-06 
697.998 3.20238e-06 
698.438 3.20622e-06 
698.877 3.21077e-06 
699.316 3.21605e-06 
699.756 3.22207e-06 
700.195 3.22883e-06 
700.635 3.23633e-06 
701.074 3.24457e-06 
701.514 3.25357e-06 
701.953 3.26337e-06 
702.393 3.27409e-06 
702.832 3.28591e-06 
703.271 3.2991e-06 
703.711 3.31405e-06 
704.15 3.33121e-06 
704.59 3.35118e-06 
705.029 3.37466e-06 
705.469 3.40245e-06 
705.908 3.43557e-06 
706.348 3.47519e-06 
706.787 3.52275e-06 
707.227 3.57999e-06 
707.666 3.64897e-06 
708.105 3.73216e-06 
708.545 3.83243e-06 
708.984 3.95308e-06 
709.424 4.09759e-06 
709.863 4.26924e-06 
710.303 4.46998e-06 
710.742 4.69856e-06 
711.182 4.94759e-06 
711.621 5.20001e-06 
712.061 5.42717e-06 
712.5 5.59205e-06 
712.939 5.66033e-06 
713.379 5.61561e-06 
713.818 5.46785e-06 
714.258 5.24808e-06 
714.697 4.99386e-06 
715.137 4.73663e-06 
715.576 4.49654e-06 
716.016 4.28335e-06 
716.455 4.09972e-06 
716.895 3.94437e-06 
717.334 3.81427e-06 
717.773 3.70589e-06 
718.213 3.61583e-06 
718.652 3.5411e-06 
719.092 3.47919e-06 
719.531 3.42805e-06 
719.971 3.38609e-06 
720.41 3.35206e-06 
720.85 3.32504e-06 
721.289 3.30437e-06 
721.729 3.28962e-06 
722.168 3.28054e-06 
722.607 3.27707e-06 
723.047 3.27932e-06 
723.486 3.2876e-06 
723.926 3.30237e-06 
724.365 3.32436e-06 
724.805 3.35448e-06 
725.244 3.39394e-06 
725.684 3.44422e-06 
726.123 3.50703e-06 
726.562 3.58421e-06 
727.002 3.6774e-06 
727.441 3.78736e-06 
727.881 3.91286e-06 
728.32 4.04898e-06 
728.76 4.18551e-06 
729.199 4.30649e-06 
729.639 4.39323e-06 
730.078 4.43099e-06 
730.518 4.41635e-06 
730.957 4.35942e-06 
731.396 4.27917e-06 
731.836 4.19574e-06 
732.275 4.12504e-06 
732.715 4.07711e-06 
733.154 4.05673e-06 
733.594 4.06454e-06 
734.033 4.09723e-06 
734.473 4.14707e-06 
734.912 4.20107e-06 
735.352 4.24179e-06 
735.791 4.25121e-06 
736.23 4.21732e-06 
736.67 4.1395e-06 
737.109 4.0282e-06 
737.549 3.8993e-06 
737.988 3.7677e-06 
738.428 3.64375e-06 
738.867 3.53288e-06 
739.307 3.4369e-06 
739.746 3.35544e-06 
740.186 3.28711e-06 
740.625 3.23016e-06 
741.064 3.18287e-06 
741.504 3.14369e-06 
741.943 3.11129e-06 
742.383 3.08461e-06 
742.822 3.06275e-06 
743.262 3.04502e-06 
743.701 3.03089e-06 
744.141 3.01996e-06 
744.58 3.01194e-06 
745.02 3.00663e-06 
745.459 3.00394e-06 
745.898 3.00385e-06 
746.338 3.00645e-06 
746.777 3.01189e-06 
747.217 3.02046e-06 
747.656 3.0325e-06 
748.096 3.0485e-06 
748.535 3.06905e-06 
748.975 3.09483e-06 
749.414 3.1266e-06 
749.854 3.16505e-06 
750.293 3.21061e-06 
750.732 3.26293e-06 
751.172 3.32027e-06 
751.611 3.37865e-06 
752.051 3.4314e-06 
752.49 3.46988e-06 
752.93 3.48605e-06 
753.369 3.47595e-06 
753.809 3.44176e-06 
754.248 3.39059e-06 
754.688 3.33116e-06 
755.127 3.27087e-06 
755.566 3.21449e-06 
756.006 3.1644e-06 
756.445 3.12126e-06 
756.885 3.08481e-06 
757.324 3.05435e-06 
757.764 3.02903e-06 
758.203 3.00802e-06 
758.643 2.99057e-06 
759.082 2.976e-06 
759.521 2.96377e-06 
759.961 2.95338e-06 
760.4 2.94447e-06 
760.84 2.93673e-06 
761.279 2.92994e-06 
761.719 2.92396e-06 
762.158 2.9187e-06 
762.598 2.91411e-06 
763.037 2.91022e-06 
763.477 2.90705e-06 
763.916 2.90467e-06 
764.355 2.90314e-06 
764.795 2.90254e-06 
765.234 2.90296e-06 
765.674 2.90448e-06 
766.113 2.90717e-06 
766.553 2.91108e-06 
766.992 2.91628e-06 
767.432 2.92279e-06 
767.871 2.93064e-06 
768.311 2.93982e-06 
768.75 2.95034e-06 
769.189 2.9622e-06 
769.629 2.97546e-06 
770.068 2.99022e-06 
770.508 3.00674e-06 
770.947 3.02538e-06 
771.387 3.04672e-06 
771.826 3.07147e-06 
772.266 3.10057e-06 
772.705 3.13511e-06 
773.145 3.17642e-06 
773.584 3.22609e-06 
774.023 3.28599e-06 
774.463 3.35842e-06 
774.902 3.44611e-06 
775.342 3.55235e-06 
775.781 3.68108e-06 
776.221 3.83696e-06 
776.66 4.02539e-06 
777.1 4.25239e-06 
777.539 4.52417e-06 
777.979 4.84586e-06 
778.418 5.21926e-06 
778.857 5.63872e-06 
779.297 6.08538e-06 
779.736 6.52149e-06 
780.176 6.88982e-06 
780.615 7.12412e-06 
781.055 7.17271e-06 
781.494 7.02266e-06 
781.934 6.70657e-06 
782.373 6.28585e-06 
782.812 5.82477e-06 
783.252 5.37251e-06 
783.691 4.95813e-06 
784.131 4.59415e-06 
784.57 4.28248e-06 
785.01 4.0195e-06 
785.449 3.79936e-06 
785.889 3.61573e-06 
786.328 3.46273e-06 
786.768 3.33529e-06 
787.207 3.22916e-06 
787.646 3.14093e-06 
788.086 3.06791e-06 
788.525 3.00805e-06 
788.965 2.95983e-06 
789.404 2.92217e-06 
789.844 2.8944e-06 
790.283 2.87616e-06 
790.723 2.86745e-06 
791.162 2.86858e-06 
791.602 2.88019e-06 
792.041 2.90327e-06 
792.48 2.93921e-06 
792.92 2.9898e-06 
793.359 3.05727e-06 
793.799 3.14427e-06 
794.238 3.25376e-06 
794.678 3.38865e-06 
795.117 3.55104e-06 
795.557 3.74075e-06 
795.996 3.95291e-06 
796.436 4.1749e-06 
796.875 4.38385e-06 
797.314 4.54789e-06 
797.754 4.63383e-06 
798.193 4.62033e-06 
798.633 4.5083e-06 
799.072 4.32042e-06 
799.512 4.08994e-06 
799.951 3.84803e-06 
800.391 3.61665e-06 
800.83 3.40771e-06 
801.27 3.22558e-06 
801.709 3.07011e-06 
802.148 2.93893e-06 
802.588 2.82887e-06 
803.027 2.7367e-06 
803.467 2.65949e-06 
803.906 2.59472e-06 
804.346 2.54027e-06 
804.785 2.49438e-06 
805.225 2.45563e-06 
805.664 2.42283e-06 
806.104 2.39503e-06 
806.543 2.37142e-06 
806.982 2.35138e-06 
807.422 2.33435e-06 
807.861 2.31988e-06 
808.301 2.30761e-06 
808.74 2.29723e-06 
809.18 2.28846e-06 
809.619 2.2811e-06 
810.059 2.27496e-06 
810.498 2.26987e-06 
810.938 2.26572e-06 
811.377 2.26236e-06 
811.816 2.25971e-06 
812.256 2.25766e-06 
812.695 2.25612e-06 
813.135 2.25502e-06 
813.574 2.25428e-06 
814.014 2.25386e-06 
814.453 2.25371e-06 
814.893 2.25379e-06 
815.332 2.25407e-06 
815.771 2.25452e-06 
816.211 2.25512e-06 
816.65 2.25585e-06 
817.09 2.25667e-06 
817.529 2.25758e-06 
817.969 2.25855e-06 
818.408 2.25957e-06 
818.848 2.26062e-06 
819.287 2.26169e-06 
819.727 2.26279e-06 
820.166 2.26391e-06 
820.605 2.26504e-06 
821.045 2.2662e-06 
821.484 2.26737e-06 
821.924 2.26857e-06 
822.363 2.26979e-06 
822.803 2.27106e-06 
823.242 2.27239e-06 
823.682 2.2738e-06 
824.121 2.27533e-06 
824.561 2.27701e-06 
825 2.27884e-06 
825.439 2.28082e-06 
825.879 2.28293e-06 
826.318 2.28511e-06 
826.758 2.2873e-06 
827.197 2.2894e-06 
827.637 2.29133e-06 
828.076 2.29301e-06 
828.516 2.29439e-06 
828.955 2.29543e-06 
829.395 2.29616e-06 
829.834 2.29664e-06 
830.273 2.29696e-06 
830.713 2.29727e-06 
831.152 2.29773e-06 
831.592 2.29852e-06 
832.031 2.29983e-06 
832.471 2.30186e-06 
832.91 2.30479e-06 
833.35 2.30879e-06 
833.789 2.31404e-06 
834.229 2.32068e-06 
834.668 2.32884e-06 
835.107 2.33861e-06 
835.547 2.35006e-06 
835.986 2.36325e-06 
836.426 2.37819e-06 
836.865 2.39491e-06 
837.305 2.41345e-06 
837.744 2.43393e-06 
838.184 2.45657e-06 
838.623 2.48179e-06 
839.062 2.51022e-06 
839.502 2.54273e-06 
839.941 2.58045e-06 
840.381 2.6248e-06 
840.82 2.67746e-06 
841.26 2.74043e-06 
841.699 2.81611e-06 
842.139 2.90739e-06 
842.578 3.01771e-06 
843.018 3.15125e-06 
843.457 3.31299e-06 
843.896 3.50889e-06 
844.336 3.74595e-06 
844.775 4.03225e-06 
845.215 4.37661e-06 
845.654 4.78776e-06 
846.094 5.27221e-06 
846.533 5.83027e-06 
846.973 6.44941e-06 
847.412 7.09576e-06 
847.852 7.7071e-06 
848.291 8.19549e-06 
848.73 8.4679e-06 
849.17 8.46239e-06 
849.609 8.17808e-06 
850.049 7.67555e-06 
850.488 7.04712e-06 
850.928 6.38115e-06 
851.367 5.74093e-06 
851.807 5.16151e-06 
852.246 4.65633e-06 
852.686 4.22559e-06 
853.125 3.86299e-06 
853.564 3.55977e-06 
854.004 3.30696e-06 
854.443 3.0964e-06 
854.883 2.92112e-06 
855.322 2.77537e-06 
855.762 2.65459e-06 
856.201 2.55523e-06 
856.641 2.47468e-06 
857.08 2.41106e-06 
857.52 2.36315e-06 
857.959 2.33032e-06 
858.398 2.31244e-06 
858.838 2.30992e-06 
859.277 2.32371e-06 
859.717 2.3553e-06 
860.156 2.40681e-06 
860.596 2.48102e-06 
861.035 2.58145e-06 
861.475 2.71235e-06 
861.914 2.8787e-06 
862.354 3.08587e-06 
862.793 3.33891e-06 
863.232 3.64086e-06 
863.672 3.98979e-06 
864.111 4.3741e-06 
864.551 4.7671e-06 
864.99 5.12372e-06 
865.43 5.38522e-06 
865.869 5.49589e-06 
866.309 5.42657e-06 
866.748 5.18921e-06 
867.188 4.83044e-06 
867.627 4.40992e-06 
868.066 3.97955e-06 
868.506 3.57376e-06 
868.945 3.21002e-06 
869.385 2.89372e-06 
869.824 2.62334e-06 
870.264 2.39417e-06 
870.703 2.20048e-06 
871.143 2.03669e-06 
871.582 1.89778e-06 
872.021 1.7795e-06 
872.461 1.6783e-06 
872.9 1.59127e-06 
873.34 1.51605e-06 
873.779 1.4507e-06 
874.219 1.39366e-06 
874.658 1.34364e-06 
875.098 1.29961e-06 
875.537 1.26068e-06 
875.977 1.22615e-06 
876.416 1.19541e-06 
876.855 1.16798e-06 
877.295 1.14343e-06 
877.734 1.12141e-06 
878.174 1.10164e-06 
878.613 1.08387e-06 
879.053 1.06793e-06 
879.492 1.05366e-06 
879.932 1.04095e-06 
880.371 1.02974e-06 
880.811 1.01998e-06 
881.25 1.01166e-06 
881.689 1.00481e-06 
882.129 9.99481e-07 
882.568 9.95771e-07 
883.008 9.93821e-07 
883.447 9.93824e-07 
883.887 9.96023e-07 
884.326 1.00072e-06 
884.766 1.00828e-06 
885.205 1.01911e-06 
885.645 1.03362e-06 
886.084 1.05213e-06 
886.523 1.07469e-06 
886.963 1.10074e-06 
887.402 1.12872e-06 
887.842 1.1557e-06 
888.281 1.17737e-06 
888.721 1.18905e-06 
889.16 1.18734e-06 
889.6 1.17181e-06 
890.039 1.14516e-06 
890.479 1.11187e-06 
890.918 1.07643e-06 
891.357 1.04211e-06 
891.797 1.01078e-06 
892.236 9.83193e-07 
892.676 9.59401e-07 
893.115 9.39099e-07 
893.555 9.21849e-07 
893.994 9.07195e-07 
894.434 8.94717e-07 
894.873 8.84054e-07 
895.312 8.74899e-07 
895.752 8.67e-07 
896.191 8.60151e-07 
896.631 8.54182e-07 
897.07 8.48953e-07 
897.51 8.4435e-07 
897.949 8.40277e-07 
898.389 8.36656e-07 
898.828 8.33421e-07 
899.268 8.30518e-07 
899.707 8.279e-07 
900.146 8.25528e-07 
900.586 8.23367e-07 
901.025 8.2139e-07 
901.465 8.19568e-07 
901.904 8.17879e-07 
902.344 8.16302e-07 
902.783 8.14817e-07 
903.223 8.13409e-07 
903.662 8.12063e-07 
904.102 8.10769e-07 
904.541 8.09517e-07 
904.98 8.08301e-07 
905.42 8.07115e-07 
905.859 8.05957e-07 
906.299 8.04825e-07 
906.738 8.03719e-07 
907.178 8.02638e-07 
907.617 8.01585e-07 
908.057 8.00564e-07 
908.496 7.99578e-07 
908.936 7.98635e-07 
909.375 7.97739e-07 
909.814 7.96895e-07 
910.254 7.96104e-07 
910.693 7.95366e-07 
911.133 7.94671e-07 
911.572 7.94011e-07 
912.012 7.9337e-07 
912.451 7.92734e-07 
912.891 7.92088e-07 
913.33 7.9142e-07 
913.77 7.90723e-07 
914.209 7.89995e-07 
914.648 7.89244e-07 
915.088 7.88484e-07 
915.527 7.87735e-07 
915.967 7.87023e-07 
916.406 7.86376e-07 
916.846 7.85825e-07 
917.285 7.85403e-07 
917.725 7.85141e-07 
918.164 7.8507e-07 
918.604 7.8522e-07 
919.043 7.85618e-07 
919.482 7.86288e-07 
919.922 7.8725e-07 
920.361 7.88518e-07 
920.801 7.90105e-07 
921.24 7.92013e-07 
921.68 7.94245e-07 
922.119 7.96803e-07 
922.559 7.99697e-07 
922.998 8.0295e-07 
923.438 8.0661e-07 
923.877 8.10758e-07 
924.316 8.15513e-07 
924.756 8.21037e-07 
925.195 8.27536e-07 
925.635 8.35257e-07 
926.074 8.44501e-07 
926.514 8.55621e-07 
926.953 8.69046e-07 
927.393 8.85293e-07 
927.832 9.04985e-07 
928.271 9.28874e-07 
928.711 9.57862e-07 
929.15 9.93018e-07 
929.59 1.03559e-06 
930.029 1.08698e-06 
930.469 1.14868e-06 
930.908 1.22199e-06 
931.348 1.3076e-06 
931.787 1.4047e-06 
932.227 1.50967e-06 
932.666 1.61474e-06 
933.105 1.70737e-06 
933.545 1.77204e-06 
933.984 1.79512e-06 
934.424 1.7709e-06 
934.863 1.70449e-06 
935.303 1.60918e-06 
935.742 1.50048e-06 
936.182 1.39118e-06 
936.621 1.28937e-06 
937.061 1.19891e-06 
937.5 1.12077e-06 
937.939 1.05434e-06 
938.379 9.98302e-07 
938.818 9.51168e-07 
939.258 9.11498e-07 
939.697 8.78024e-07 
940.137 8.49671e-07 
940.576 8.25551e-07 
941.016 8.04934e-07 
941.455 7.87227e-07 
941.895 7.71949e-07 
942.334 7.58708e-07 
942.773 7.47183e-07 
943.213 7.37112e-07 
943.652 7.28278e-07 
944.092 7.20502e-07 
944.531 7.13635e-07 
944.971 7.07552e-07 
945.41 7.02149e-07 
945.85 6.97339e-07 
946.289 6.93047e-07 
946.729 6.8921e-07 
947.168 6.85774e-07 
947.607 6.82692e-07 
948.047 6.79926e-07 
948.486 6.77437e-07 
948.926 6.75198e-07 
949.365 6.73179e-07 
949.805 6.71359e-07 
950.244 6.69719e-07 
950.684 6.68242e-07 
951.123 6.66917e-07 
951.562 6.65734e-07 
952.002 6.64684e-07 
952.441 6.63765e-07 
952.881 6.62973e-07 
953.32 6.62307e-07 
953.76 6.61767e-07 
954.199 6.61353e-07 
954.639 6.61064e-07 
955.078 6.60902e-07 
955.518 6.60864e-07 
955.957 6.60949e-07 
956.396 6.61152e-07 
956.836 6.61467e-07 
957.275 6.61887e-07 
957.715 6.62404e-07 
958.154 6.63009e-07 
958.594 6.6369e-07 
959.033 6.64441e-07 
959.473 6.65249e-07 
959.912 6.66108e-07 
960.352 6.67009e-07 
960.791 6.67944e-07 
961.23 6.68907e-07 
961.67 6.69891e-07 
962.109 6.70892e-07 
962.549 6.71906e-07 
962.988 6.72929e-07 
963.428 6.73958e-07 
963.867 6.74992e-07 
964.307 6.76026e-07 
964.746 6.77056e-07 
965.186 6.78078e-07 
965.625 6.79087e-07 
966.064 6.80078e-07 
966.504 6.81049e-07 
966.943 6.81996e-07 
967.383 6.82916e-07 
967.822 6.83807e-07 
968.262 6.84669e-07 
968.701 6.85497e-07 
969.141 6.8629e-07 
969.58 6.87041e-07 
970.02 6.87747e-07 
970.459 6.88402e-07 
970.898 6.88999e-07 
971.338 6.89535e-07 
971.777 6.90005e-07 
972.217 6.90405e-07 
972.656 6.90736e-07 
973.096 6.90998e-07 
973.535 6.91193e-07 
973.975 6.91325e-07 
974.414 6.91397e-07 
974.854 6.91416e-07 
975.293 6.91388e-07 
975.732 6.91324e-07 
976.172 6.91233e-07 
976.611 6.91128e-07 
977.051 6.91023e-07 
977.49 6.90931e-07 
977.93 6.9086e-07 
978.369 6.90816e-07 
978.809 6.90795e-07 
979.248 6.90786e-07 
979.688 6.90775e-07 
980.127 6.9074e-07 
980.566 6.90656e-07 
981.006 6.90506e-07 
981.445 6.90274e-07 
981.885 6.89954e-07 
982.324 6.89553e-07 
982.764 6.89087e-07 
983.203 6.88587e-07 
983.643 6.88092e-07 
984.082 6.87648e-07 
984.521 6.87305e-07 
984.961 6.8712e-07 
985.4 6.87145e-07 
985.84 6.87437e-07 
986.279 6.88046e-07 
986.719 6.89023e-07 
987.158 6.90412e-07 
987.598 6.92252e-07 
988.037 6.94577e-07 
988.477 6.9741e-07 
988.916 7.00767e-07 
989.355 7.04658e-07 
989.795 7.09088e-07 
990.234 7.14068e-07 
990.674 7.19623e-07 
991.113 7.25809e-07 
991.553 7.32728e-07 
991.992 7.40537e-07 
992.432 7.49465e-07 
992.871 7.59808e-07 
993.311 7.71933e-07 
993.75 7.86287e-07 
994.189 8.03402e-07 
994.629 8.23917e-07 
995.068 8.486e-07 
995.508 8.7838e-07 
995.947 9.14383e-07 
996.387 9.5796e-07 
996.826 1.01073e-06 
997.266 1.0746e-06 
997.705 1.15176e-06 
998.145 1.24466e-06 
998.584 1.35574e-06 
999.023 1.48692e-06 
999.463 1.63861e-06 
999.902 1.80798e-06 
1000.34 1.98671e-06 
1000.78 2.15884e-06 
1001.22 2.30107e-06 
1001.66 2.38751e-06 
1002.1 2.3991e-06 
1002.54 2.33253e-06 
1002.98 2.20192e-06 
1003.42 2.03186e-06 
1003.86 1.84741e-06 
1004.3 1.66737e-06 
1004.74 1.50268e-06 
1005.18 1.35788e-06 
1005.62 1.23351e-06 
1006.05 1.12802e-06 
1006.49 1.03905e-06 
1006.93 9.641e-07 
1007.37 9.00862e-07 
1007.81 8.47325e-07 
1008.25 8.01802e-07 
1008.69 7.62903e-07 
1009.13 7.29492e-07 
1009.57 7.00644e-07 
1010.01 6.75609e-07 
1010.45 6.53772e-07 
1010.89 6.34634e-07 
1011.33 6.17785e-07 
1011.77 6.02885e-07 
1012.21 5.89654e-07 
1012.65 5.7786e-07 
1013.09 5.67308e-07 
1013.53 5.57833e-07 
1013.96 5.49298e-07 
1014.4 5.41586e-07 
1014.84 5.34596e-07 
1015.28 5.28245e-07 
1015.72 5.22458e-07 
1016.16 5.17173e-07 
1016.6 5.12333e-07 
1017.04 5.07894e-07 
1017.48 5.03812e-07 
1017.92 5.00052e-07 
1018.36 4.96583e-07 
1018.8 4.93375e-07 
1019.24 4.90404e-07 
1019.68 4.87649e-07 
1020.12 4.8509e-07 
1020.56 4.8271e-07 
1021 4.80494e-07 
1021.44 4.78427e-07 
1021.88 4.76497e-07 
