#energy geo_1 
600 1.89773e-06 
600.439 1.90052e-06 
600.879 1.90341e-06 
601.318 1.90642e-06 
601.758 1.90954e-06 
602.197 1.91279e-06 
602.637 1.91615e-06 
603.076 1.91963e-06 
603.516 1.92323e-06 
603.955 1.92696e-06 
604.395 1.93083e-06 
604.834 1.93488e-06 
605.273 1.93915e-06 
605.713 1.94372e-06 
606.152 1.94871e-06 
606.592 1.95425e-06 
607.031 1.96052e-06 
607.471 1.96771e-06 
607.91 1.97606e-06 
608.35 1.98581e-06 
608.789 1.99727e-06 
609.229 2.01074e-06 
609.668 2.02654e-06 
610.107 2.04492e-06 
610.547 2.06593e-06 
610.986 2.08921e-06 
611.426 2.11366e-06 
611.865 2.13722e-06 
612.305 2.15684e-06 
612.744 2.16915e-06 
613.184 2.17178e-06 
613.623 2.16453e-06 
614.062 2.14947e-06 
614.502 2.1299e-06 
614.941 2.10897e-06 
615.381 2.08891e-06 
615.82 2.07095e-06 
616.26 2.05556e-06 
616.699 2.04272e-06 
617.139 2.03221e-06 
617.578 2.02373e-06 
618.018 2.01696e-06 
618.457 2.01161e-06 
618.896 2.00746e-06 
619.336 2.00428e-06 
619.775 2.00192e-06 
620.215 2.00022e-06 
620.654 1.9991e-06 
621.094 1.99844e-06 
621.533 1.99818e-06 
621.973 1.99826e-06 
622.412 1.99863e-06 
622.852 1.99924e-06 
623.291 2.00007e-06 
623.73 2.00108e-06 
624.17 2.00225e-06 
624.609 2.00355e-06 
625.049 2.00498e-06 
625.488 2.00652e-06 
625.928 2.00815e-06 
626.367 2.00986e-06 
626.807 2.01165e-06 
627.246 2.0135e-06 
627.686 2.01541e-06 
628.125 2.01737e-06 
628.564 2.01937e-06 
629.004 2.02141e-06 
629.443 2.02348e-06 
629.883 2.02558e-06 
630.322 2.0277e-06 
630.762 2.02984e-06 
631.201 2.032e-06 
631.641 2.03417e-06 
632.08 2.03634e-06 
632.52 2.03852e-06 
632.959 2.0407e-06 
633.398 2.04287e-06 
633.838 2.04504e-06 
634.277 2.0472e-06 
634.717 2.04933e-06 
635.156 2.05145e-06 
635.596 2.05355e-06 
636.035 2.05561e-06 
636.475 2.05764e-06 
636.914 2.05962e-06 
637.354 2.06155e-06 
637.793 2.06343e-06 
638.232 2.06524e-06 
638.672 2.06698e-06 
639.111 2.06865e-06 
639.551 2.07025e-06 
639.99 2.07177e-06 
640.43 2.07321e-06 
640.869 2.0746e-06 
641.309 2.07593e-06 
641.748 2.07721e-06 
642.188 2.07847e-06 
642.627 2.07971e-06 
643.066 2.08095e-06 
643.506 2.08221e-06 
643.945 2.0835e-06 
644.385 2.08485e-06 
644.824 2.08627e-06 
645.264 2.08776e-06 
645.703 2.08935e-06 
646.143 2.09102e-06 
646.582 2.09279e-06 
647.021 2.09464e-06 
647.461 2.09657e-06 
647.9 2.09856e-06 
648.34 2.10063e-06 
648.779 2.10275e-06 
649.219 2.10493e-06 
649.658 2.10717e-06 
650.098 2.10948e-06 
650.537 2.11187e-06 
650.977 2.11436e-06 
651.416 2.11696e-06 
651.855 2.11968e-06 
652.295 2.12253e-06 
652.734 2.12554e-06 
653.174 2.12872e-06 
653.613 2.13207e-06 
654.053 2.13561e-06 
654.492 2.13934e-06 
654.932 2.14328e-06 
655.371 2.14742e-06 
655.811 2.15177e-06 
656.25 2.15634e-06 
656.689 2.16111e-06 
657.129 2.16612e-06 
657.568 2.1714e-06 
658.008 2.17701e-06 
658.447 2.18305e-06 
658.887 2.1897e-06 
659.326 2.19716e-06 
659.766 2.20569e-06 
660.205 2.21561e-06 
660.645 2.22727e-06 
661.084 2.2411e-06 
661.523 2.25755e-06 
661.963 2.27716e-06 
662.402 2.30047e-06 
662.842 2.32799e-06 
663.281 2.36006e-06 
663.721 2.39651e-06 
664.16 2.43628e-06 
664.6 2.47683e-06 
665.039 2.51386e-06 
665.479 2.5417e-06 
665.918 2.55496e-06 
666.357 2.55093e-06 
666.797 2.53091e-06 
667.236 2.49956e-06 
667.676 2.46265e-06 
668.115 2.42509e-06 
668.555 2.39001e-06 
668.994 2.35896e-06 
669.434 2.33238e-06 
669.873 2.31008e-06 
670.312 2.2916e-06 
670.752 2.2764e-06 
671.191 2.26394e-06 
671.631 2.25378e-06 
672.07 2.2455e-06 
672.51 2.23878e-06 
672.949 2.23335e-06 
673.389 2.229e-06 
673.828 2.22555e-06 
674.268 2.22285e-06 
674.707 2.22077e-06 
675.146 2.21924e-06 
675.586 2.21816e-06 
676.025 2.21747e-06 
676.465 2.21711e-06 
676.904 2.21705e-06 
677.344 2.21723e-06 
677.783 2.21764e-06 
678.223 2.21824e-06 
678.662 2.219e-06 
679.102 2.21992e-06 
679.541 2.22096e-06 
679.98 2.22213e-06 
680.42 2.2234e-06 
680.859 2.22476e-06 
681.299 2.22621e-06 
681.738 2.22773e-06 
682.178 2.22933e-06 
682.617 2.23098e-06 
683.057 2.2327e-06 
683.496 2.23446e-06 
683.936 2.23628e-06 
684.375 2.23814e-06 
684.814 2.24004e-06 
685.254 2.24197e-06 
685.693 2.24395e-06 
686.133 2.24595e-06 
686.572 2.24798e-06 
687.012 2.25004e-06 
687.451 2.25213e-06 
687.891 2.25424e-06 
688.33 2.25638e-06 
688.77 2.25853e-06 
689.209 2.2607e-06 
689.648 2.26289e-06 
690.088 2.2651e-06 
690.527 2.26732e-06 
690.967 2.26956e-06 
691.406 2.27181e-06 
691.846 2.27407e-06 
692.285 2.27635e-06 
692.725 2.27864e-06 
693.164 2.28094e-06 
693.604 2.28325e-06 
694.043 2.28558e-06 
694.482 2.28791e-06 
694.922 2.29026e-06 
695.361 2.29262e-06 
695.801 2.29499e-06 
696.24 2.29737e-06 
696.68 2.29976e-06 
697.119 2.30217e-06 
697.559 2.30458e-06 
697.998 2.30701e-06 
698.438 2.30945e-06 
698.877 2.3119e-06 
699.316 2.31436e-06 
699.756 2.31682e-06 
700.195 2.3193e-06 
700.635 2.32179e-06 
701.074 2.32428e-06 
701.514 2.32679e-06 
701.953 2.3293e-06 
702.393 2.33182e-06 
702.832 2.33434e-06 
703.271 2.33687e-06 
703.711 2.33941e-06 
704.15 2.34195e-06 
704.59 2.34449e-06 
705.029 2.34704e-06 
705.469 2.3496e-06 
705.908 2.35216e-06 
706.348 2.35473e-06 
706.787 2.3573e-06 
707.227 2.35988e-06 
707.666 2.36246e-06 
708.105 2.36506e-06 
708.545 2.36766e-06 
708.984 2.37026e-06 
709.424 2.37288e-06 
709.863 2.3755e-06 
710.303 2.37813e-06 
710.742 2.38076e-06 
711.182 2.3834e-06 
711.621 2.38605e-06 
712.061 2.3887e-06 
712.5 2.39135e-06 
712.939 2.39401e-06 
713.379 2.39667e-06 
713.818 2.39933e-06 
714.258 2.402e-06 
714.697 2.40466e-06 
715.137 2.40733e-06 
715.576 2.41e-06 
716.016 2.41268e-06 
716.455 2.41536e-06 
716.895 2.41804e-06 
717.334 2.42073e-06 
717.773 2.42342e-06 
718.213 2.42612e-06 
718.652 2.42881e-06 
719.092 2.43151e-06 
719.531 2.43422e-06 
719.971 2.43692e-06 
720.41 2.43963e-06 
720.85 2.44234e-06 
721.289 2.44505e-06 
721.729 2.44777e-06 
722.168 2.45049e-06 
722.607 2.45321e-06 
723.047 2.45593e-06 
723.486 2.45866e-06 
723.926 2.46138e-06 
724.365 2.46411e-06 
724.805 2.46685e-06 
725.244 2.46959e-06 
725.684 2.47232e-06 
726.123 2.47507e-06 
726.562 2.47781e-06 
727.002 2.48056e-06 
727.441 2.48331e-06 
727.881 2.48606e-06 
728.32 2.48882e-06 
728.76 2.49158e-06 
729.199 2.49434e-06 
729.639 2.49711e-06 
730.078 2.49988e-06 
730.518 2.50266e-06 
730.957 2.50544e-06 
731.396 2.50822e-06 
731.836 2.51101e-06 
732.275 2.51381e-06 
732.715 2.51661e-06 
733.154 2.51942e-06 
733.594 2.52223e-06 
734.033 2.52504e-06 
734.473 2.52787e-06 
734.912 2.5307e-06 
735.352 2.53353e-06 
735.791 2.53637e-06 
736.23 2.53922e-06 
736.67 2.54207e-06 
737.109 2.54493e-06 
737.549 2.5478e-06 
737.988 2.55068e-06 
738.428 2.55356e-06 
738.867 2.55645e-06 
739.307 2.55935e-06 
739.746 2.56225e-06 
740.186 2.56517e-06 
740.625 2.56809e-06 
741.064 2.57102e-06 
741.504 2.57396e-06 
741.943 2.57692e-06 
742.383 2.57987e-06 
742.822 2.58284e-06 
743.262 2.58582e-06 
743.701 2.5888e-06 
744.141 2.59179e-06 
744.58 2.59479e-06 
745.02 2.59779e-06 
745.459 2.60081e-06 
745.898 2.60383e-06 
746.338 2.60685e-06 
746.777 2.60989e-06 
747.217 2.61293e-06 
747.656 2.61598e-06 
748.096 2.61904e-06 
748.535 2.62211e-06 
748.975 2.62519e-06 
749.414 2.62827e-06 
749.854 2.63136e-06 
750.293 2.63446e-06 
750.732 2.63758e-06 
751.172 2.64069e-06 
751.611 2.64381e-06 
752.051 2.64694e-06 
752.49 2.65008e-06 
752.93 2.65322e-06 
753.369 2.65637e-06 
753.809 2.65953e-06 
754.248 2.66269e-06 
754.688 2.66587e-06 
755.127 2.66905e-06 
755.566 2.67225e-06 
756.006 2.67546e-06 
756.445 2.67869e-06 
756.885 2.68193e-06 
757.324 2.68518e-06 
757.764 2.68845e-06 
758.203 2.69174e-06 
758.643 2.69504e-06 
759.082 2.69837e-06 
759.521 2.70171e-06 
759.961 2.70507e-06 
760.4 2.70846e-06 
760.84 2.71188e-06 
761.279 2.71532e-06 
761.719 2.7188e-06 
762.158 2.72231e-06 
762.598 2.72586e-06 
763.037 2.72946e-06 
763.477 2.7331e-06 
763.916 2.7368e-06 
764.355 2.74056e-06 
764.795 2.74437e-06 
765.234 2.74824e-06 
765.674 2.75217e-06 
766.113 2.75617e-06 
766.553 2.76024e-06 
766.992 2.76439e-06 
767.432 2.76862e-06 
767.871 2.77294e-06 
768.311 2.77735e-06 
768.75 2.78184e-06 
769.189 2.78643e-06 
769.629 2.79111e-06 
770.068 2.79587e-06 
770.508 2.80072e-06 
770.947 2.80564e-06 
771.387 2.81063e-06 
771.826 2.8157e-06 
772.266 2.82084e-06 
772.705 2.82604e-06 
773.145 2.83132e-06 
773.584 2.83668e-06 
774.023 2.84211e-06 
774.463 2.8476e-06 
774.902 2.85316e-06 
775.342 2.85876e-06 
775.781 2.86441e-06 
776.221 2.8701e-06 
776.66 2.87582e-06 
777.1 2.88156e-06 
777.539 2.88733e-06 
777.979 2.89313e-06 
778.418 2.89894e-06 
778.857 2.90475e-06 
779.297 2.91054e-06 
779.736 2.91628e-06 
780.176 2.92196e-06 
780.615 2.92756e-06 
781.055 2.93308e-06 
781.494 2.9385e-06 
781.934 2.94385e-06 
782.373 2.94912e-06 
782.812 2.95431e-06 
783.252 2.95939e-06 
783.691 2.96433e-06 
784.131 2.96909e-06 
784.57 2.97362e-06 
785.01 2.97791e-06 
785.449 2.98194e-06 
785.889 2.98567e-06 
786.328 2.98902e-06 
786.768 2.99183e-06 
787.207 2.9939e-06 
787.646 2.995e-06 
788.086 2.99487e-06 
788.525 2.99336e-06 
788.965 2.99036e-06 
789.404 2.98598e-06 
789.844 2.98041e-06 
790.283 2.97385e-06 
790.723 2.96653e-06 
791.162 2.95858e-06 
791.602 2.95012e-06 
792.041 2.94128e-06 
792.48 2.93226e-06 
792.92 2.92337e-06 
793.359 2.91509e-06 
793.799 2.90792e-06 
794.238 2.90234e-06 
794.678 2.89867e-06 
795.117 2.89692e-06 
795.557 2.89688e-06 
795.996 2.89799e-06 
796.436 2.89968e-06 
796.875 2.90143e-06 
797.314 2.9029e-06 
797.754 2.90385e-06 
798.193 2.90413e-06 
798.633 2.90371e-06 
799.072 2.90276e-06 
799.512 2.9017e-06 
799.951 2.90103e-06 
800.391 2.9011e-06 
800.83 2.90216e-06 
801.27 2.90433e-06 
801.709 2.9076e-06 
802.148 2.91201e-06 
802.588 2.9177e-06 
803.027 2.92488e-06 
803.467 2.93371e-06 
803.906 2.94422e-06 
804.346 2.9564e-06 
804.785 2.97027e-06 
805.225 2.98588e-06 
805.664 3.0029e-06 
806.104 3.01956e-06 
806.543 3.03244e-06 
806.982 3.03764e-06 
807.422 3.03293e-06 
807.861 3.0202e-06 
808.301 3.00465e-06 
808.74 2.99239e-06 
809.18 2.98762e-06 
809.619 2.99294e-06 
810.059 3.01008e-06 
810.498 3.04083e-06 
810.938 3.08857e-06 
811.377 3.1603e-06 
811.816 3.26869e-06 
812.256 3.43626e-06 
812.695 3.70562e-06 
813.135 4.16474e-06 
813.574 5.01144e-06 
814.014 6.71059e-06 
814.453 1.00597e-05 
814.893 1.34725e-05 
815.332 1.1791e-05 
815.771 8.11334e-06 
816.211 5.71649e-06 
816.65 4.51813e-06 
817.09 3.895e-06 
817.529 3.54123e-06 
817.969 3.32433e-06 
818.408 3.18304e-06 
818.848 3.08655e-06 
819.287 3.01818e-06 
819.727 2.96832e-06 
820.166 2.93111e-06 
820.605 2.90284e-06 
821.045 2.88105e-06 
821.484 2.8641e-06 
821.924 2.8508e-06 
822.363 2.84033e-06 
822.803 2.83208e-06 
823.242 2.8256e-06 
823.682 2.82055e-06 
824.121 2.81665e-06 
824.561 2.81371e-06 
825 2.81156e-06 
825.439 2.81008e-06 
825.879 2.80915e-06 
826.318 2.8087e-06 
826.758 2.80865e-06 
827.197 2.80895e-06 
827.637 2.80957e-06 
828.076 2.81044e-06 
828.516 2.81155e-06 
828.955 2.81286e-06 
829.395 2.81435e-06 
829.834 2.816e-06 
830.273 2.81779e-06 
830.713 2.8197e-06 
831.152 2.82172e-06 
831.592 2.82385e-06 
832.031 2.82606e-06 
832.471 2.82835e-06 
832.91 2.83072e-06 
833.35 2.83316e-06 
833.789 2.83567e-06 
834.229 2.83823e-06 
834.668 2.84085e-06 
835.107 2.84353e-06 
835.547 2.84625e-06 
835.986 2.84902e-06 
836.426 2.85184e-06 
836.865 2.8547e-06 
837.305 2.85761e-06 
837.744 2.86055e-06 
838.184 2.86353e-06 
838.623 2.86654e-06 
839.062 2.86958e-06 
839.502 2.87266e-06 
839.941 2.87576e-06 
840.381 2.87888e-06 
840.82 2.88203e-06 
841.26 2.8852e-06 
841.699 2.88839e-06 
842.139 2.89159e-06 
842.578 2.89481e-06 
843.018 2.89805e-06 
843.457 2.9013e-06 
843.896 2.90456e-06 
844.336 2.90783e-06 
844.775 2.91112e-06 
845.215 2.91442e-06 
845.654 2.91774e-06 
846.094 2.92107e-06 
846.533 2.92442e-06 
846.973 2.92778e-06 
847.412 2.93116e-06 
847.852 2.93457e-06 
848.291 2.93799e-06 
848.73 2.94143e-06 
849.17 2.94489e-06 
849.609 2.94837e-06 
850.049 2.95186e-06 
850.488 2.95537e-06 
850.928 2.9589e-06 
851.367 2.96245e-06 
851.807 2.966e-06 
852.246 2.96956e-06 
852.686 2.97313e-06 
853.125 2.9767e-06 
853.564 2.98028e-06 
854.004 2.98386e-06 
854.443 2.98744e-06 
854.883 2.99103e-06 
855.322 2.99463e-06 
855.762 2.99825e-06 
856.201 3.00186e-06 
856.641 3.00549e-06 
857.08 3.00912e-06 
857.52 3.01275e-06 
857.959 3.01638e-06 
858.398 3.02001e-06 
858.838 3.02365e-06 
859.277 3.02729e-06 
859.717 3.03094e-06 
860.156 3.03458e-06 
860.596 3.03823e-06 
861.035 3.04188e-06 
861.475 3.04553e-06 
861.914 3.04918e-06 
862.354 3.05284e-06 
862.793 3.0565e-06 
863.232 3.06015e-06 
863.672 3.0638e-06 
864.111 3.06746e-06 
864.551 3.07112e-06 
864.99 3.07478e-06 
865.43 3.07844e-06 
865.869 3.0821e-06 
866.309 3.08577e-06 
866.748 3.08945e-06 
867.188 3.09314e-06 
867.627 3.09684e-06 
868.066 3.10055e-06 
868.506 3.10428e-06 
868.945 3.10802e-06 
869.385 3.11179e-06 
869.824 3.11558e-06 
870.264 3.11938e-06 
870.703 3.12322e-06 
871.143 3.12709e-06 
871.582 3.13098e-06 
872.021 3.1349e-06 
872.461 3.13887e-06 
872.9 3.14287e-06 
873.34 3.14693e-06 
873.779 3.15104e-06 
874.219 3.15521e-06 
874.658 3.15943e-06 
875.098 3.16373e-06 
875.537 3.1681e-06 
875.977 3.17256e-06 
876.416 3.17711e-06 
876.855 3.18174e-06 
877.295 3.18646e-06 
877.734 3.19128e-06 
878.174 3.19621e-06 
878.613 3.20126e-06 
879.053 3.20644e-06 
879.492 3.21175e-06 
879.932 3.21718e-06 
880.371 3.22276e-06 
880.811 3.22848e-06 
881.25 3.23434e-06 
881.689 3.24033e-06 
882.129 3.24644e-06 
882.568 3.25267e-06 
883.008 3.25901e-06 
883.447 3.26546e-06 
883.887 3.27201e-06 
884.326 3.27868e-06 
884.766 3.28544e-06 
885.205 3.29232e-06 
885.645 3.2993e-06 
886.084 3.30638e-06 
886.523 3.31356e-06 
886.963 3.32082e-06 
887.402 3.32815e-06 
887.842 3.33553e-06 
888.281 3.34297e-06 
888.721 3.35045e-06 
889.16 3.35798e-06 
889.6 3.36555e-06 
890.039 3.37314e-06 
890.479 3.38074e-06 
890.918 3.38831e-06 
891.357 3.39583e-06 
891.797 3.40324e-06 
892.236 3.41055e-06 
892.676 3.41773e-06 
893.115 3.4248e-06 
893.555 3.43174e-06 
893.994 3.43858e-06 
894.434 3.44533e-06 
894.873 3.45195e-06 
895.312 3.4584e-06 
895.752 3.46463e-06 
896.191 3.47058e-06 
896.631 3.47621e-06 
897.07 3.4815e-06 
897.51 3.48643e-06 
897.949 3.49089e-06 
898.389 3.49466e-06 
898.828 3.49749e-06 
899.268 3.49902e-06 
899.707 3.49894e-06 
900.146 3.49698e-06 
900.586 3.493e-06 
901.025 3.48708e-06 
901.465 3.4795e-06 
901.904 3.47056e-06 
902.344 3.46059e-06 
902.783 3.44983e-06 
903.223 3.43845e-06 
903.662 3.42665e-06 
904.102 3.41468e-06 
904.541 3.40299e-06 
904.98 3.3922e-06 
905.42 3.38307e-06 
905.859 3.3763e-06 
906.299 3.37242e-06 
906.738 3.37153e-06 
907.178 3.37339e-06 
907.617 3.37733e-06 
908.057 3.38248e-06 
908.496 3.38811e-06 
908.936 3.39367e-06 
909.375 3.39876e-06 
909.814 3.40314e-06 
910.254 3.40671e-06 
910.693 3.40968e-06 
911.133 3.41256e-06 
911.572 3.41604e-06 
912.012 3.4207e-06 
912.451 3.42692e-06 
912.891 3.43492e-06 
913.33 3.44471e-06 
913.77 3.45629e-06 
914.209 3.46982e-06 
914.648 3.48557e-06 
915.088 3.50376e-06 
915.527 3.52444e-06 
915.967 3.54758e-06 
916.406 3.57318e-06 
916.846 3.60129e-06 
917.285 3.63159e-06 
917.725 3.66194e-06 
918.164 3.6878e-06 
918.604 3.70351e-06 
919.043 3.70517e-06 
919.482 3.69424e-06 
919.922 3.67736e-06 
920.361 3.6632e-06 
920.801 3.65837e-06 
921.24 3.66686e-06 
921.68 3.69127e-06 
922.119 3.73389e-06 
922.559 3.79877e-06 
922.998 3.8944e-06 
923.438 4.03663e-06 
923.877 4.25364e-06 
924.316 4.59841e-06 
924.756 5.17887e-06 
925.195 6.23516e-06 
925.635 8.33029e-06 
926.074 1.25049e-05 
926.514 1.74626e-05 
926.953 1.66159e-05 
927.393 1.16616e-05 
927.832 7.88624e-06 
928.271 5.96543e-06 
928.711 4.96894e-06 
929.15 4.39821e-06 
929.59 4.03873e-06 
930.029 3.79339e-06 
930.469 3.61428e-06 
930.908 3.47597e-06 
931.348 3.3641e-06 
931.787 3.27041e-06 
932.227 3.19034e-06 
932.666 3.12164e-06 
933.105 3.06339e-06 
933.545 3.01534e-06 
933.984 2.97719e-06 
934.424 2.94813e-06 
934.863 2.92674e-06 
935.303 2.91092e-06 
935.742 2.89847e-06 
936.182 2.88756e-06 
936.621 2.87689e-06 
937.061 2.86552e-06 
937.5 2.85285e-06 
937.939 2.8387e-06 
938.379 2.82352e-06 
938.818 2.80849e-06 
939.258 2.79502e-06 
939.697 2.78421e-06 
940.137 2.77673e-06 
940.576 2.7729e-06 
941.016 2.77271e-06 
941.455 2.77622e-06 
941.895 2.78384e-06 
942.334 2.7962e-06 
942.773 2.81374e-06 
943.213 2.83652e-06 
943.652 2.86454e-06 
944.092 2.89781e-06 
944.531 2.93641e-06 
944.971 2.97914e-06 
945.41 3.02047e-06 
945.85 3.04997e-06 
946.289 3.05581e-06 
946.729 3.03161e-06 
947.168 2.98299e-06 
947.607 2.9258e-06 
948.047 2.87831e-06 
948.486 2.85348e-06 
948.926 2.85904e-06 
949.365 2.90017e-06 
949.805 2.98221e-06 
950.244 3.11539e-06 
950.684 3.32068e-06 
951.123 3.63634e-06 
951.562 4.13062e-06 
952.002 4.93337e-06 
952.441 6.31386e-06 
952.881 8.88087e-06 
953.32 1.40508e-05 
953.76 2.39556e-05 
954.199 3.29832e-05 
954.639 2.8731e-05 
955.078 1.79374e-05 
955.518 1.07864e-05 
955.957 7.22534e-06 
956.396 5.37258e-06 
956.836 4.31798e-06 
957.275 3.66853e-06 
957.715 3.24279e-06 
958.154 2.94962e-06 
958.594 2.73963e-06 
959.033 2.58434e-06 
959.473 2.46645e-06 
959.912 2.37498e-06 
960.352 2.30269e-06 
960.791 2.24465e-06 
961.23 2.19743e-06 
961.67 2.15857e-06 
962.109 2.12625e-06 
962.549 2.09915e-06 
962.988 2.07626e-06 
963.428 2.05679e-06 
963.867 2.04013e-06 
964.307 2.02582e-06 
964.746 2.01347e-06 
965.186 2.00277e-06 
965.625 1.99349e-06 
966.064 1.9854e-06 
966.504 1.97836e-06 
966.943 1.97221e-06 
967.383 1.96685e-06 
967.822 1.96217e-06 
968.262 1.95809e-06 
968.701 1.95455e-06 
969.141 1.95147e-06 
969.58 1.94882e-06 
970.02 1.94653e-06 
970.459 1.94459e-06 
970.898 1.94294e-06 
971.338 1.94157e-06 
971.777 1.94045e-06 
972.217 1.93955e-06 
972.656 1.93885e-06 
973.096 1.93834e-06 
973.535 1.93801e-06 
973.975 1.93783e-06 
974.414 1.93779e-06 
974.854 1.93789e-06 
975.293 1.93811e-06 
975.732 1.93845e-06 
976.172 1.93889e-06 
976.611 1.93943e-06 
977.051 1.94006e-06 
977.49 1.94078e-06 
977.93 1.94158e-06 
978.369 1.94245e-06 
978.809 1.94339e-06 
979.248 1.9444e-06 
979.688 1.94547e-06 
980.127 1.9466e-06 
980.566 1.94778e-06 
981.006 1.94902e-06 
981.445 1.95031e-06 
981.885 1.95163e-06 
982.324 1.95301e-06 
982.764 1.95442e-06 
983.203 1.95588e-06 
983.643 1.95737e-06 
984.082 1.95889e-06 
984.521 1.96045e-06 
984.961 1.96205e-06 
985.4 1.96367e-06 
985.84 1.96533e-06 
986.279 1.96701e-06 
986.719 1.96872e-06 
987.158 1.97046e-06 
987.598 1.97223e-06 
988.037 1.97402e-06 
988.477 1.97584e-06 
988.916 1.97768e-06 
989.355 1.97955e-06 
989.795 1.98144e-06 
990.234 1.98335e-06 
990.674 1.98529e-06 
991.113 1.98725e-06 
991.553 1.98923e-06 
991.992 1.99123e-06 
992.432 1.99325e-06 
992.871 1.99529e-06 
993.311 1.99735e-06 
993.75 1.99944e-06 
994.189 2.00154e-06 
994.629 2.00366e-06 
995.068 2.00579e-06 
995.508 2.00794e-06 
995.947 2.01011e-06 
996.387 2.0123e-06 
996.826 2.0145e-06 
997.266 2.01671e-06 
997.705 2.01894e-06 
998.145 2.02119e-06 
998.584 2.02345e-06 
999.023 2.02572e-06 
999.463 2.028e-06 
999.902 2.0303e-06 
1000.34 2.03261e-06 
1000.78 2.03494e-06 
1001.22 2.03727e-06 
1001.66 2.03963e-06 
1002.1 2.04199e-06 
1002.54 2.04437e-06 
1002.98 2.04676e-06 
1003.42 2.04917e-06 
1003.86 2.05159e-06 
1004.3 2.05402e-06 
1004.74 2.05647e-06 
1005.18 2.05894e-06 
1005.62 2.06142e-06 
1006.05 2.06391e-06 
1006.49 2.06642e-06 
1006.93 2.06895e-06 
1007.37 2.07148e-06 
1007.81 2.07404e-06 
1008.25 2.07661e-06 
1008.69 2.07919e-06 
1009.13 2.08178e-06 
1009.57 2.08439e-06 
1010.01 2.08702e-06 
1010.45 2.08965e-06 
1010.89 2.0923e-06 
1011.33 2.09496e-06 
1011.77 2.09763e-06 
1012.21 2.10031e-06 
1012.65 2.103e-06 
1013.09 2.1057e-06 
1013.53 2.10841e-06 
1013.96 2.11113e-06 
1014.4 2.11387e-06 
1014.84 2.11661e-06 
1015.28 2.11936e-06 
1015.72 2.12212e-06 
1016.16 2.12489e-06 
1016.6 2.12768e-06 
1017.04 2.13047e-06 
1017.48 2.13327e-06 
1017.92 2.13608e-06 
1018.36 2.13891e-06 
1018.8 2.14174e-06 
1019.24 2.14459e-06 
1019.68 2.14744e-06 
1020.12 2.15031e-06 
1020.56 2.15319e-06 
1021 2.15607e-06 
1021.44 2.15897e-06 
1021.88 2.16188e-06 
1022.31 2.1648e-06 
