#energy geo_1 
600 2.53814e-06 
600.439 2.54137e-06 
600.879 2.54486e-06 
601.318 2.54864e-06 
601.758 2.55277e-06 
602.197 2.5573e-06 
602.637 2.56231e-06 
603.076 2.56787e-06 
603.516 2.57409e-06 
603.955 2.58107e-06 
604.395 2.58897e-06 
604.834 2.59794e-06 
605.273 2.60819e-06 
605.713 2.61997e-06 
606.152 2.63357e-06 
606.592 2.64938e-06 
607.031 2.66783e-06 
607.471 2.68948e-06 
607.91 2.71503e-06 
608.35 2.7453e-06 
608.789 2.78129e-06 
609.229 2.82418e-06 
609.668 2.87529e-06 
610.107 2.93598e-06 
610.547 3.00739e-06 
610.986 3.0899e-06 
611.426 3.18228e-06 
611.865 3.28041e-06 
612.305 3.37603e-06 
612.744 3.45656e-06 
613.184 3.5075e-06 
613.623 3.51773e-06 
614.062 3.48494e-06 
614.502 3.41693e-06 
614.941 3.32747e-06 
615.381 3.23046e-06 
615.82 3.13615e-06 
616.26 3.05034e-06 
616.699 2.97537e-06 
617.139 2.91144e-06 
617.578 2.85767e-06 
618.018 2.81277e-06 
618.457 2.77536e-06 
618.896 2.74422e-06 
619.336 2.71827e-06 
619.775 2.6966e-06 
620.215 2.67848e-06 
620.654 2.66329e-06 
621.094 2.65054e-06 
621.533 2.63984e-06 
621.973 2.63085e-06 
622.412 2.62331e-06 
622.852 2.617e-06 
623.291 2.61174e-06 
623.73 2.60737e-06 
624.17 2.60378e-06 
624.609 2.60087e-06 
625.049 2.59853e-06 
625.488 2.59671e-06 
625.928 2.59533e-06 
626.367 2.59435e-06 
626.807 2.59371e-06 
627.246 2.59339e-06 
627.686 2.59334e-06 
628.125 2.59354e-06 
628.564 2.59396e-06 
629.004 2.59458e-06 
629.443 2.59538e-06 
629.883 2.59635e-06 
630.322 2.59746e-06 
630.762 2.59871e-06 
631.201 2.60008e-06 
631.641 2.60157e-06 
632.08 2.60316e-06 
632.52 2.60484e-06 
632.959 2.60662e-06 
633.398 2.60847e-06 
633.838 2.61041e-06 
634.277 2.61241e-06 
634.717 2.61448e-06 
635.156 2.61662e-06 
635.596 2.61881e-06 
636.035 2.62105e-06 
636.475 2.62335e-06 
636.914 2.6257e-06 
637.354 2.62809e-06 
637.793 2.63053e-06 
638.232 2.633e-06 
638.672 2.63552e-06 
639.111 2.63807e-06 
639.551 2.64066e-06 
639.99 2.64328e-06 
640.43 2.64593e-06 
640.869 2.64862e-06 
641.309 2.65133e-06 
641.748 2.65408e-06 
642.188 2.65685e-06 
642.627 2.65964e-06 
643.066 2.66247e-06 
643.506 2.66531e-06 
643.945 2.66818e-06 
644.385 2.67107e-06 
644.824 2.67399e-06 
645.264 2.67692e-06 
645.703 2.67988e-06 
646.143 2.68286e-06 
646.582 2.68585e-06 
647.021 2.68886e-06 
647.461 2.69189e-06 
647.9 2.69494e-06 
648.34 2.698e-06 
648.779 2.70108e-06 
649.219 2.70417e-06 
649.658 2.70728e-06 
650.098 2.7104e-06 
650.537 2.71353e-06 
650.977 2.71667e-06 
651.416 2.71983e-06 
651.855 2.72299e-06 
652.295 2.72617e-06 
652.734 2.72935e-06 
653.174 2.73254e-06 
653.613 2.73574e-06 
654.053 2.73894e-06 
654.492 2.74215e-06 
654.932 2.74536e-06 
655.371 2.74858e-06 
655.811 2.7518e-06 
656.25 2.75501e-06 
656.689 2.75823e-06 
657.129 2.76144e-06 
657.568 2.76465e-06 
658.008 2.76786e-06 
658.447 2.77106e-06 
658.887 2.77425e-06 
659.326 2.77743e-06 
659.766 2.7806e-06 
660.205 2.78375e-06 
660.645 2.7869e-06 
661.084 2.79002e-06 
661.523 2.79313e-06 
661.963 2.79621e-06 
662.402 2.79927e-06 
662.842 2.80231e-06 
663.281 2.80532e-06 
663.721 2.80829e-06 
664.16 2.81124e-06 
664.6 2.81415e-06 
665.039 2.81702e-06 
665.479 2.81986e-06 
665.918 2.82265e-06 
666.357 2.82539e-06 
666.797 2.82809e-06 
667.236 2.83074e-06 
667.676 2.83333e-06 
668.115 2.83587e-06 
668.555 2.83834e-06 
668.994 2.84076e-06 
669.434 2.84311e-06 
669.873 2.84539e-06 
670.312 2.8476e-06 
670.752 2.84974e-06 
671.191 2.85181e-06 
671.631 2.8538e-06 
672.07 2.85571e-06 
672.51 2.85754e-06 
672.949 2.85929e-06 
673.389 2.86096e-06 
673.828 2.86255e-06 
674.268 2.86406e-06 
674.707 2.86548e-06 
675.146 2.86682e-06 
675.586 2.86809e-06 
676.025 2.86928e-06 
676.465 2.8704e-06 
676.904 2.87145e-06 
677.344 2.87245e-06 
677.783 2.87339e-06 
678.223 2.87429e-06 
678.662 2.87515e-06 
679.102 2.876e-06 
679.541 2.87685e-06 
679.98 2.8777e-06 
680.42 2.8786e-06 
680.859 2.87955e-06 
681.299 2.88059e-06 
681.738 2.88176e-06 
682.178 2.88308e-06 
682.617 2.8846e-06 
683.057 2.88638e-06 
683.496 2.88847e-06 
683.936 2.89093e-06 
684.375 2.89385e-06 
684.814 2.89731e-06 
685.254 2.90142e-06 
685.693 2.9063e-06 
686.133 2.91208e-06 
686.572 2.91893e-06 
687.012 2.92704e-06 
687.451 2.93662e-06 
687.891 2.94795e-06 
688.33 2.96133e-06 
688.77 2.97713e-06 
689.209 2.99578e-06 
689.648 3.0178e-06 
690.088 3.04383e-06 
690.527 3.07462e-06 
690.967 3.1111e-06 
691.406 3.15437e-06 
691.846 3.20581e-06 
692.285 3.2671e-06 
692.725 3.3403e-06 
693.164 3.42795e-06 
693.604 3.53315e-06 
694.043 3.65967e-06 
694.482 3.81199e-06 
694.922 3.99529e-06 
695.361 4.21521e-06 
695.801 4.47711e-06 
696.24 4.78459e-06 
696.68 5.1367e-06 
697.119 5.52352e-06 
697.559 5.92065e-06 
697.998 6.28552e-06 
698.438 6.56082e-06 
698.877 6.69032e-06 
699.316 6.64271e-06 
699.756 6.42779e-06 
700.195 6.09096e-06 
700.635 5.69145e-06 
701.074 5.28094e-06 
701.514 4.89366e-06 
701.953 4.54698e-06 
702.393 4.24632e-06 
702.832 3.99028e-06 
703.271 3.77432e-06 
703.711 3.5929e-06 
704.15 3.44064e-06 
704.59 3.31271e-06 
705.029 3.20504e-06 
705.469 3.11425e-06 
705.908 3.0376e-06 
706.348 2.97289e-06 
706.787 2.91837e-06 
707.227 2.87265e-06 
707.666 2.83464e-06 
708.105 2.80354e-06 
708.545 2.77872e-06 
708.984 2.75978e-06 
709.424 2.74647e-06 
709.863 2.73869e-06 
710.303 2.73652e-06 
710.742 2.74019e-06 
711.182 2.75011e-06 
711.621 2.76689e-06 
712.061 2.79133e-06 
712.5 2.82455e-06 
712.939 2.86795e-06 
713.379 2.92331e-06 
713.818 2.99284e-06 
714.258 3.07927e-06 
714.697 3.18582e-06 
715.137 3.31612e-06 
715.576 3.47396e-06 
716.016 3.6625e-06 
716.455 3.88291e-06 
716.895 4.13194e-06 
717.334 4.39834e-06 
717.773 4.65943e-06 
718.213 4.8804e-06 
718.652 5.02066e-06 
719.092 5.04823e-06 
719.531 4.9549e-06 
719.971 4.76056e-06 
720.41 4.5028e-06 
720.85 4.22081e-06 
721.289 3.94436e-06 
721.729 3.69089e-06 
722.168 3.46777e-06 
722.607 3.27606e-06 
723.047 3.11347e-06 
723.486 2.97642e-06 
723.926 2.86109e-06 
724.365 2.76391e-06 
724.805 2.68178e-06 
725.244 2.6121e-06 
725.684 2.55273e-06 
726.123 2.50189e-06 
726.562 2.45817e-06 
727.002 2.42041e-06 
727.441 2.38764e-06 
727.881 2.3591e-06 
728.32 2.33416e-06 
728.76 2.31228e-06 
729.199 2.29303e-06 
729.639 2.27605e-06 
730.078 2.26103e-06 
730.518 2.24773e-06 
730.957 2.23593e-06 
731.396 2.22544e-06 
731.836 2.21612e-06 
732.275 2.20781e-06 
732.715 2.20042e-06 
733.154 2.19385e-06 
733.594 2.188e-06 
734.033 2.1828e-06 
734.473 2.1782e-06 
734.912 2.17412e-06 
735.352 2.17052e-06 
735.791 2.16736e-06 
736.23 2.1646e-06 
736.67 2.1622e-06 
737.109 2.16013e-06 
737.549 2.15837e-06 
737.988 2.15689e-06 
738.428 2.15566e-06 
738.867 2.15467e-06 
739.307 2.15391e-06 
739.746 2.15334e-06 
740.186 2.15296e-06 
740.625 2.15276e-06 
741.064 2.15273e-06 
741.504 2.15284e-06 
741.943 2.1531e-06 
742.383 2.15349e-06 
742.822 2.154e-06 
743.262 2.15463e-06 
743.701 2.15537e-06 
744.141 2.15621e-06 
744.58 2.15715e-06 
745.02 2.15818e-06 
745.459 2.15929e-06 
745.898 2.16048e-06 
746.338 2.16175e-06 
746.777 2.16309e-06 
747.217 2.16449e-06 
747.656 2.16596e-06 
748.096 2.16749e-06 
748.535 2.16907e-06 
748.975 2.1707e-06 
749.414 2.17239e-06 
749.854 2.17411e-06 
750.293 2.17588e-06 
750.732 2.17769e-06 
751.172 2.17954e-06 
751.611 2.18142e-06 
752.051 2.18333e-06 
752.49 2.18527e-06 
752.93 2.18724e-06 
753.369 2.18923e-06 
753.809 2.19124e-06 
754.248 2.19327e-06 
754.688 2.19532e-06 
755.127 2.19738e-06 
755.566 2.19946e-06 
756.006 2.20154e-06 
756.445 2.20363e-06 
756.885 2.20573e-06 
757.324 2.20783e-06 
757.764 2.20993e-06 
758.203 2.21203e-06 
758.643 2.21412e-06 
759.082 2.21621e-06 
759.521 2.21829e-06 
759.961 2.22035e-06 
760.4 2.22241e-06 
760.84 2.22445e-06 
761.279 2.22647e-06 
761.719 2.22847e-06 
762.158 2.23045e-06 
762.598 2.2324e-06 
763.037 2.23433e-06 
763.477 2.23623e-06 
763.916 2.2381e-06 
764.355 2.23993e-06 
764.795 2.24174e-06 
765.234 2.24351e-06 
765.674 2.24524e-06 
766.113 2.24693e-06 
766.553 2.24859e-06 
766.992 2.25021e-06 
767.432 2.25179e-06 
767.871 2.25333e-06 
768.311 2.25483e-06 
768.75 2.25629e-06 
769.189 2.25772e-06 
769.629 2.25911e-06 
770.068 2.26047e-06 
770.508 2.2618e-06 
770.947 2.2631e-06 
771.387 2.26439e-06 
771.826 2.26566e-06 
772.266 2.26693e-06 
772.705 2.2682e-06 
773.145 2.26948e-06 
773.584 2.27079e-06 
774.023 2.27214e-06 
774.463 2.27354e-06 
774.902 2.27502e-06 
775.342 2.27659e-06 
775.781 2.27828e-06 
776.221 2.28013e-06 
776.66 2.28215e-06 
777.1 2.2844e-06 
777.539 2.28692e-06 
777.979 2.28976e-06 
778.418 2.29296e-06 
778.857 2.29662e-06 
779.297 2.30081e-06 
779.736 2.30561e-06 
780.176 2.31114e-06 
780.615 2.31752e-06 
781.055 2.32491e-06 
781.494 2.33347e-06 
781.934 2.34342e-06 
782.373 2.355e-06 
782.812 2.3685e-06 
783.252 2.38428e-06 
783.691 2.40275e-06 
784.131 2.42444e-06 
784.57 2.44995e-06 
785.01 2.48004e-06 
785.449 2.51565e-06 
785.889 2.55791e-06 
786.328 2.60821e-06 
786.768 2.66826e-06 
787.207 2.74017e-06 
787.646 2.82647e-06 
788.086 2.93015e-06 
788.525 3.05464e-06 
788.965 3.20355e-06 
789.404 3.38014e-06 
789.844 3.58617e-06 
790.283 3.81986e-06 
790.723 4.07282e-06 
791.162 4.32659e-06 
791.602 4.55117e-06 
792.041 4.70899e-06 
792.48 4.76682e-06 
792.92 4.71059e-06 
793.359 4.55263e-06 
793.799 4.32518e-06 
794.238 4.06572e-06 
794.678 3.805e-06 
795.117 3.5624e-06 
795.557 3.34705e-06 
795.996 3.16127e-06 
796.436 3.00358e-06 
796.875 2.87086e-06 
797.314 2.75956e-06 
797.754 2.66627e-06 
798.193 2.58801e-06 
798.633 2.52226e-06 
799.072 2.46694e-06 
799.512 2.42038e-06 
799.951 2.38123e-06 
800.391 2.34841e-06 
800.83 2.32109e-06 
801.27 2.29861e-06 
801.709 2.28046e-06 
802.148 2.2663e-06 
802.588 2.25588e-06 
803.027 2.24907e-06 
803.467 2.24581e-06 
803.906 2.2462e-06 
804.346 2.2504e-06 
804.785 2.2587e-06 
805.225 2.27152e-06 
805.664 2.28943e-06 
806.104 2.31318e-06 
806.543 2.34371e-06 
806.982 2.38225e-06 
807.422 2.43029e-06 
807.861 2.48964e-06 
808.301 2.56245e-06 
808.74 2.65109e-06 
809.18 2.75793e-06 
809.619 2.88478e-06 
810.059 3.03182e-06 
810.498 3.1959e-06 
810.938 3.36816e-06 
811.377 3.5321e-06 
811.816 3.66411e-06 
812.256 3.73878e-06 
812.695 3.73877e-06 
813.135 3.66325e-06 
813.574 3.52822e-06 
814.014 3.35861e-06 
814.453 3.17837e-06 
814.893 3.00474e-06 
815.332 2.84726e-06 
815.771 2.70959e-06 
816.211 2.59181e-06 
816.65 2.49221e-06 
817.09 2.40843e-06 
817.529 2.33803e-06 
817.969 2.27879e-06 
818.408 2.22881e-06 
818.848 2.18648e-06 
819.287 2.15049e-06 
819.727 2.11975e-06 
820.166 2.09339e-06 
820.605 2.0707e-06 
821.045 2.0511e-06 
821.484 2.03412e-06 
821.924 2.01935e-06 
822.363 2.00649e-06 
822.803 1.99526e-06 
823.242 1.98543e-06 
823.682 1.97683e-06 
824.121 1.9693e-06 
824.561 1.96269e-06 
825 1.95691e-06 
825.439 1.95185e-06 
825.879 1.94743e-06 
826.318 1.94358e-06 
826.758 1.94024e-06 
827.197 1.93736e-06 
827.637 1.93488e-06 
828.076 1.93278e-06 
828.516 1.931e-06 
828.955 1.92953e-06 
829.395 1.92834e-06 
829.834 1.92739e-06 
830.273 1.92667e-06 
830.713 1.92616e-06 
831.152 1.92584e-06 
831.592 1.9257e-06 
832.031 1.92572e-06 
832.471 1.92589e-06 
832.91 1.9262e-06 
833.35 1.92664e-06 
833.789 1.9272e-06 
834.229 1.92786e-06 
834.668 1.92864e-06 
835.107 1.9295e-06 
835.547 1.93046e-06 
835.986 1.9315e-06 
836.426 1.93262e-06 
836.865 1.93381e-06 
837.305 1.93508e-06 
837.744 1.9364e-06 
838.184 1.93779e-06 
838.623 1.93924e-06 
839.062 1.94074e-06 
839.502 1.94229e-06 
839.941 1.94388e-06 
840.381 1.94553e-06 
840.82 1.94721e-06 
841.26 1.94894e-06 
841.699 1.9507e-06 
842.139 1.95249e-06 
842.578 1.95432e-06 
843.018 1.95618e-06 
843.457 1.95807e-06 
843.896 1.95998e-06 
844.336 1.96192e-06 
844.775 1.96389e-06 
845.215 1.96587e-06 
845.654 1.96788e-06 
846.094 1.9699e-06 
846.533 1.97194e-06 
846.973 1.97399e-06 
847.412 1.97605e-06 
847.852 1.97813e-06 
848.291 1.98022e-06 
848.73 1.98232e-06 
849.17 1.98442e-06 
849.609 1.98653e-06 
850.049 1.98864e-06 
850.488 1.99076e-06 
850.928 1.99287e-06 
851.367 1.99499e-06 
851.807 1.9971e-06 
852.246 1.99921e-06 
852.686 2.00131e-06 
853.125 2.00341e-06 
853.564 2.0055e-06 
854.004 2.00758e-06 
854.443 2.00964e-06 
854.883 2.0117e-06 
855.322 2.01374e-06 
855.762 2.01576e-06 
856.201 2.01777e-06 
856.641 2.01976e-06 
857.08 2.02173e-06 
857.52 2.02368e-06 
857.959 2.0256e-06 
858.398 2.0275e-06 
858.838 2.02938e-06 
859.277 2.03123e-06 
859.717 2.03306e-06 
860.156 2.03486e-06 
860.596 2.03663e-06 
861.035 2.03838e-06 
861.475 2.0401e-06 
861.914 2.04179e-06 
862.354 2.04345e-06 
862.793 2.04509e-06 
863.232 2.0467e-06 
863.672 2.04829e-06 
864.111 2.04986e-06 
864.551 2.05141e-06 
864.99 2.05295e-06 
865.43 2.05448e-06 
865.869 2.056e-06 
866.309 2.05752e-06 
866.748 2.05905e-06 
867.188 2.06059e-06 
867.627 2.06216e-06 
868.066 2.06377e-06 
868.506 2.06542e-06 
868.945 2.06713e-06 
869.385 2.06893e-06 
869.824 2.07082e-06 
870.264 2.07284e-06 
870.703 2.075e-06 
871.143 2.07734e-06 
871.582 2.07989e-06 
872.021 2.0827e-06 
872.461 2.08581e-06 
872.9 2.08927e-06 
873.34 2.09314e-06 
873.779 2.09751e-06 
874.219 2.10246e-06 
874.658 2.10808e-06 
875.098 2.1145e-06 
875.537 2.12187e-06 
875.977 2.13034e-06 
876.416 2.14013e-06 
876.855 2.15147e-06 
877.295 2.16465e-06 
877.734 2.18003e-06 
878.174 2.19804e-06 
878.613 2.2192e-06 
879.053 2.24414e-06 
879.492 2.27367e-06 
879.932 2.30873e-06 
880.371 2.35054e-06 
880.811 2.40052e-06 
881.25 2.46042e-06 
881.689 2.53229e-06 
882.129 2.61844e-06 
882.568 2.72122e-06 
883.008 2.84262e-06 
883.447 2.98335e-06 
883.887 3.14137e-06 
884.326 3.3097e-06 
884.766 3.47437e-06 
885.205 3.61408e-06 
885.645 3.70413e-06 
886.084 3.72499e-06 
886.523 3.67146e-06 
886.963 3.55526e-06 
887.402 3.39908e-06 
887.842 3.227e-06 
888.281 3.0576e-06 
888.721 2.90196e-06 
889.16 2.76493e-06 
889.6 2.64731e-06 
890.039 2.54782e-06 
890.479 2.46429e-06 
890.918 2.3944e-06 
891.357 2.33598e-06 
891.797 2.28714e-06 
892.236 2.24629e-06 
892.676 2.21216e-06 
893.115 2.18372e-06 
893.555 2.16013e-06 
893.994 2.14076e-06 
894.434 2.12512e-06 
894.873 2.11284e-06 
895.312 2.10365e-06 
895.752 2.09739e-06 
896.191 2.09398e-06 
896.631 2.09342e-06 
897.07 2.0958e-06 
897.51 2.10128e-06 
897.949 2.11014e-06 
898.389 2.12275e-06 
898.828 2.13961e-06 
899.268 2.16137e-06 
899.707 2.18887e-06 
900.146 2.22314e-06 
900.586 2.26547e-06 
901.025 2.31745e-06 
901.465 2.38093e-06 
901.904 2.45802e-06 
902.344 2.55092e-06 
902.783 2.66149e-06 
903.223 2.79048e-06 
903.662 2.93622e-06 
904.102 3.0927e-06 
904.541 3.24771e-06 
904.98 3.38243e-06 
905.42 3.47442e-06 
905.859 3.50469e-06 
906.299 3.46582e-06 
906.738 3.36557e-06 
907.178 3.22317e-06 
907.617 3.06108e-06 
908.057 2.898e-06 
908.496 2.74591e-06 
908.936 2.61062e-06 
909.375 2.49369e-06 
909.814 2.39425e-06 
910.254 2.31038e-06 
910.693 2.23987e-06 
911.133 2.18058e-06 
911.572 2.1306e-06 
912.012 2.08834e-06 
912.451 2.05246e-06 
912.891 2.02187e-06 
913.33 1.99567e-06 
913.77 1.97314e-06 
914.209 1.95369e-06 
914.648 1.93684e-06 
915.088 1.92218e-06 
915.527 1.90941e-06 
915.967 1.89823e-06 
916.406 1.88844e-06 
916.846 1.87985e-06 
917.285 1.87229e-06 
917.725 1.86563e-06 
918.164 1.85978e-06 
918.604 1.85461e-06 
919.043 1.85007e-06 
919.482 1.84607e-06 
919.922 1.84255e-06 
920.361 1.83947e-06 
920.801 1.83678e-06 
921.24 1.83443e-06 
921.68 1.8324e-06 
922.119 1.83065e-06 
922.559 1.82916e-06 
922.998 1.8279e-06 
923.438 1.82686e-06 
923.877 1.826e-06 
924.316 1.82533e-06 
924.756 1.82481e-06 
925.195 1.82444e-06 
925.635 1.82421e-06 
926.074 1.82411e-06 
926.514 1.82412e-06 
926.953 1.82424e-06 
927.393 1.82446e-06 
927.832 1.82477e-06 
928.271 1.82516e-06 
928.711 1.82564e-06 
929.15 1.82619e-06 
929.59 1.82681e-06 
930.029 1.8275e-06 
930.469 1.82824e-06 
930.908 1.82905e-06 
931.348 1.8299e-06 
931.787 1.83081e-06 
932.227 1.83176e-06 
932.666 1.83276e-06 
933.105 1.8338e-06 
933.545 1.83488e-06 
933.984 1.836e-06 
934.424 1.83715e-06 
934.863 1.83834e-06 
935.303 1.83956e-06 
935.742 1.84081e-06 
936.182 1.84208e-06 
936.621 1.84339e-06 
937.061 1.84472e-06 
937.5 1.84607e-06 
937.939 1.84745e-06 
938.379 1.84885e-06 
938.818 1.85027e-06 
939.258 1.85171e-06 
939.697 1.85317e-06 
940.137 1.85465e-06 
940.576 1.85615e-06 
941.016 1.85766e-06 
941.455 1.85919e-06 
941.895 1.86074e-06 
942.334 1.8623e-06 
942.773 1.86387e-06 
943.213 1.86546e-06 
943.652 1.86707e-06 
944.092 1.86868e-06 
944.531 1.87031e-06 
944.971 1.87195e-06 
945.41 1.8736e-06 
945.85 1.87526e-06 
946.289 1.87693e-06 
946.729 1.87862e-06 
947.168 1.88031e-06 
947.607 1.88201e-06 
948.047 1.88373e-06 
948.486 1.88545e-06 
948.926 1.88718e-06 
949.365 1.88891e-06 
949.805 1.89066e-06 
950.244 1.89241e-06 
950.684 1.89418e-06 
951.123 1.89595e-06 
951.562 1.89772e-06 
952.002 1.8995e-06 
952.441 1.90129e-06 
952.881 1.90309e-06 
953.32 1.90489e-06 
953.76 1.9067e-06 
954.199 1.90852e-06 
954.639 1.91034e-06 
955.078 1.91216e-06 
955.518 1.914e-06 
955.957 1.91583e-06 
956.396 1.91767e-06 
956.836 1.91952e-06 
957.275 1.92137e-06 
957.715 1.92323e-06 
958.154 1.92509e-06 
958.594 1.92695e-06 
959.033 1.92882e-06 
959.473 1.93069e-06 
959.912 1.93257e-06 
960.352 1.93444e-06 
960.791 1.93632e-06 
961.23 1.93821e-06 
961.67 1.9401e-06 
962.109 1.94199e-06 
962.549 1.94388e-06 
962.988 1.94577e-06 
963.428 1.94767e-06 
963.867 1.94956e-06 
964.307 1.95146e-06 
964.746 1.95336e-06 
965.186 1.95526e-06 
965.625 1.95716e-06 
966.064 1.95906e-06 
966.504 1.96096e-06 
966.943 1.96286e-06 
967.383 1.96476e-06 
967.822 1.96666e-06 
968.262 1.96855e-06 
968.701 1.97045e-06 
969.141 1.97234e-06 
969.58 1.97422e-06 
970.02 1.97611e-06 
970.459 1.97799e-06 
970.898 1.97986e-06 
971.338 1.98173e-06 
971.777 1.9836e-06 
972.217 1.98546e-06 
972.656 1.98731e-06 
973.096 1.98915e-06 
973.535 1.99099e-06 
973.975 1.99282e-06 
974.414 1.99464e-06 
974.854 1.99644e-06 
975.293 1.99824e-06 
975.732 2.00003e-06 
976.172 2.0018e-06 
976.611 2.00356e-06 
977.051 2.00531e-06 
977.49 2.00705e-06 
977.93 2.00876e-06 
978.369 2.01047e-06 
978.809 2.01215e-06 
979.248 2.01382e-06 
979.688 2.01546e-06 
980.127 2.01709e-06 
980.566 2.0187e-06 
981.006 2.02029e-06 
981.445 2.02185e-06 
981.885 2.0234e-06 
982.324 2.02492e-06 
982.764 2.02641e-06 
983.203 2.02788e-06 
983.643 2.02933e-06 
984.082 2.03075e-06 
984.521 2.03215e-06 
984.961 2.03352e-06 
985.4 2.03486e-06 
985.84 2.03618e-06 
986.279 2.03748e-06 
986.719 2.03875e-06 
987.158 2.03999e-06 
987.598 2.04121e-06 
988.037 2.04241e-06 
988.477 2.04359e-06 
988.916 2.04475e-06 
989.355 2.04589e-06 
989.795 2.04702e-06 
990.234 2.04815e-06 
990.674 2.04926e-06 
991.113 2.05037e-06 
991.553 2.05149e-06 
991.992 2.05262e-06 
992.432 2.05377e-06 
992.871 2.05494e-06 
993.311 2.05615e-06 
993.75 2.05741e-06 
994.189 2.05872e-06 
994.629 2.06012e-06 
995.068 2.0616e-06 
995.508 2.0632e-06 
995.947 2.06493e-06 
996.387 2.06682e-06 
996.826 2.0689e-06 
997.266 2.0712e-06 
997.705 2.07377e-06 
998.145 2.07665e-06 
998.584 2.07989e-06 
999.023 2.08357e-06 
999.463 2.08774e-06 
999.902 2.0925e-06 
1000.34 2.09795e-06 
1000.78 2.10422e-06 
1001.22 2.11144e-06 
1001.66 2.11979e-06 
1002.1 2.12947e-06 
1002.54 2.14075e-06 
1002.98 2.15391e-06 
1003.42 2.16933e-06 
1003.86 2.18747e-06 
1004.3 2.20887e-06 
1004.74 2.23422e-06 
1005.18 2.26435e-06 
1005.62 2.30029e-06 
1006.05 2.34329e-06 
1006.49 2.3948e-06 
1006.93 2.45653e-06 
1007.37 2.5303e-06 
1007.81 2.61781e-06 
1008.25 2.72015e-06 
1008.69 2.83682e-06 
1009.13 2.96434e-06 
1009.57 3.09447e-06 
1010.01 3.21321e-06 
1010.45 3.30218e-06 
1010.89 3.34373e-06 
1011.33 3.32831e-06 
1011.77 3.25925e-06 
1012.21 3.151e-06 
1012.65 3.02242e-06 
1013.09 2.89009e-06 
1013.53 2.76515e-06 
1013.96 2.65327e-06 
1014.4 2.55626e-06 
1014.84 2.47371e-06 
1015.28 2.40414e-06 
1015.72 2.34576e-06 
1016.16 2.29678e-06 
1016.6 2.25563e-06 
1017.04 2.22095e-06 
1017.48 2.19162e-06 
1017.92 2.1667e-06 
1018.36 2.14546e-06 
1018.8 2.12727e-06 
1019.24 2.11164e-06 
1019.68 2.09817e-06 
1020.12 2.08651e-06 
1020.56 2.0764e-06 
1021 2.06761e-06 
1021.44 2.05996e-06 
1021.88 2.05328e-06 
1022.31 2.04745e-06 
1022.75 2.04235e-06 
