#energy geo_1 
600 1.98362e-06 
600.439 1.98537e-06 
600.879 1.98712e-06 
601.318 1.98888e-06 
601.758 1.99065e-06 
602.197 1.99242e-06 
602.637 1.9942e-06 
603.076 1.99598e-06 
603.516 1.99777e-06 
603.955 1.99956e-06 
604.395 2.00135e-06 
604.834 2.00315e-06 
605.273 2.00495e-06 
605.713 2.00674e-06 
606.152 2.00854e-06 
606.592 2.01033e-06 
607.031 2.01212e-06 
607.471 2.0139e-06 
607.91 2.01568e-06 
608.35 2.01744e-06 
608.789 2.01919e-06 
609.229 2.02093e-06 
609.668 2.02265e-06 
610.107 2.02435e-06 
610.547 2.02602e-06 
610.986 2.02768e-06 
611.426 2.02932e-06 
611.865 2.03093e-06 
612.305 2.03253e-06 
612.744 2.03412e-06 
613.184 2.03569e-06 
613.623 2.03725e-06 
614.062 2.0388e-06 
614.502 2.04035e-06 
614.941 2.0419e-06 
615.381 2.04345e-06 
615.82 2.04499e-06 
616.26 2.04654e-06 
616.699 2.04808e-06 
617.139 2.04962e-06 
617.578 2.05116e-06 
618.018 2.05269e-06 
618.457 2.05423e-06 
618.896 2.05576e-06 
619.336 2.05729e-06 
619.775 2.05882e-06 
620.215 2.06036e-06 
620.654 2.0619e-06 
621.094 2.06344e-06 
621.533 2.065e-06 
621.973 2.06656e-06 
622.412 2.06814e-06 
622.852 2.06973e-06 
623.291 2.07133e-06 
623.73 2.07295e-06 
624.17 2.07458e-06 
624.609 2.07624e-06 
625.049 2.0779e-06 
625.488 2.07958e-06 
625.928 2.08128e-06 
626.367 2.08299e-06 
626.807 2.08471e-06 
627.246 2.08644e-06 
627.686 2.08819e-06 
628.125 2.08995e-06 
628.564 2.09172e-06 
629.004 2.09351e-06 
629.443 2.09531e-06 
629.883 2.09713e-06 
630.322 2.09897e-06 
630.762 2.10084e-06 
631.201 2.10272e-06 
631.641 2.10464e-06 
632.08 2.10659e-06 
632.52 2.10857e-06 
632.959 2.11059e-06 
633.398 2.11267e-06 
633.838 2.11479e-06 
634.277 2.11697e-06 
634.717 2.11923e-06 
635.156 2.12156e-06 
635.596 2.12399e-06 
636.035 2.12652e-06 
636.475 2.12917e-06 
636.914 2.13197e-06 
637.354 2.13493e-06 
637.793 2.13808e-06 
638.232 2.14147e-06 
638.672 2.14514e-06 
639.111 2.14915e-06 
639.551 2.15357e-06 
639.99 2.15851e-06 
640.43 2.16406e-06 
640.869 2.17035e-06 
641.309 2.17754e-06 
641.748 2.18574e-06 
642.188 2.19507e-06 
642.627 2.20552e-06 
643.066 2.21688e-06 
643.506 2.22861e-06 
643.945 2.2397e-06 
644.385 2.24878e-06 
644.824 2.2544e-06 
645.264 2.25569e-06 
645.703 2.25274e-06 
646.143 2.24662e-06 
646.582 2.23878e-06 
647.021 2.23055e-06 
647.461 2.22281e-06 
647.9 2.21605e-06 
648.34 2.21041e-06 
648.779 2.20588e-06 
649.219 2.20234e-06 
649.658 2.19966e-06 
650.098 2.1977e-06 
650.537 2.19635e-06 
650.977 2.19549e-06 
651.416 2.19505e-06 
651.855 2.19495e-06 
652.295 2.19513e-06 
652.734 2.19555e-06 
653.174 2.19617e-06 
653.613 2.19695e-06 
654.053 2.19788e-06 
654.492 2.19893e-06 
654.932 2.20009e-06 
655.371 2.20134e-06 
655.811 2.20266e-06 
656.25 2.20406e-06 
656.689 2.20551e-06 
657.129 2.20701e-06 
657.568 2.20857e-06 
658.008 2.21015e-06 
658.447 2.21178e-06 
658.887 2.21343e-06 
659.326 2.21511e-06 
659.766 2.21681e-06 
660.205 2.21852e-06 
660.645 2.22025e-06 
661.084 2.222e-06 
661.523 2.22375e-06 
661.963 2.22552e-06 
662.402 2.2273e-06 
662.842 2.22909e-06 
663.281 2.23088e-06 
663.721 2.23268e-06 
664.16 2.23449e-06 
664.6 2.2363e-06 
665.039 2.23812e-06 
665.479 2.23994e-06 
665.918 2.24176e-06 
666.357 2.2436e-06 
666.797 2.24543e-06 
667.236 2.24727e-06 
667.676 2.24913e-06 
668.115 2.25099e-06 
668.555 2.25286e-06 
668.994 2.25473e-06 
669.434 2.25663e-06 
669.873 2.25853e-06 
670.312 2.26044e-06 
670.752 2.26236e-06 
671.191 2.26429e-06 
671.631 2.26623e-06 
672.07 2.26818e-06 
672.51 2.27013e-06 
672.949 2.2721e-06 
673.389 2.27408e-06 
673.828 2.27606e-06 
674.268 2.27806e-06 
674.707 2.28007e-06 
675.146 2.28209e-06 
675.586 2.28413e-06 
676.025 2.28618e-06 
676.465 2.28825e-06 
676.904 2.29033e-06 
677.344 2.29242e-06 
677.783 2.29453e-06 
678.223 2.29665e-06 
678.662 2.29879e-06 
679.102 2.30094e-06 
679.541 2.3031e-06 
679.98 2.30527e-06 
680.42 2.30745e-06 
680.859 2.30964e-06 
681.299 2.31184e-06 
681.738 2.31403e-06 
682.178 2.31623e-06 
682.617 2.31843e-06 
683.057 2.32061e-06 
683.496 2.32279e-06 
683.936 2.32496e-06 
684.375 2.3271e-06 
684.814 2.32923e-06 
685.254 2.33133e-06 
685.693 2.33341e-06 
686.133 2.33547e-06 
686.572 2.33751e-06 
687.012 2.33953e-06 
687.451 2.34153e-06 
687.891 2.34352e-06 
688.33 2.34549e-06 
688.77 2.34746e-06 
689.209 2.34941e-06 
689.648 2.35136e-06 
690.088 2.35329e-06 
690.527 2.3552e-06 
690.967 2.3571e-06 
691.406 2.35898e-06 
691.846 2.36084e-06 
692.285 2.36268e-06 
692.725 2.3645e-06 
693.164 2.36629e-06 
693.604 2.36807e-06 
694.043 2.36984e-06 
694.482 2.37159e-06 
694.922 2.37333e-06 
695.361 2.37507e-06 
695.801 2.37681e-06 
696.24 2.37855e-06 
696.68 2.3803e-06 
697.119 2.38205e-06 
697.559 2.38381e-06 
697.998 2.38558e-06 
698.438 2.38736e-06 
698.877 2.38915e-06 
699.316 2.39096e-06 
699.756 2.39278e-06 
700.195 2.3946e-06 
700.635 2.39644e-06 
701.074 2.39828e-06 
701.514 2.40013e-06 
701.953 2.40198e-06 
702.393 2.40383e-06 
702.832 2.40568e-06 
703.271 2.40752e-06 
703.711 2.40935e-06 
704.15 2.41117e-06 
704.59 2.41297e-06 
705.029 2.41474e-06 
705.469 2.41647e-06 
705.908 2.41815e-06 
706.348 2.41977e-06 
706.787 2.42132e-06 
707.227 2.4228e-06 
707.666 2.42424e-06 
708.105 2.42564e-06 
708.545 2.42708e-06 
708.984 2.42861e-06 
709.424 2.43031e-06 
709.863 2.4323e-06 
710.303 2.43465e-06 
710.742 2.43747e-06 
711.182 2.44083e-06 
711.621 2.44477e-06 
712.061 2.44933e-06 
712.5 2.45453e-06 
712.939 2.4604e-06 
713.379 2.46699e-06 
713.818 2.47433e-06 
714.258 2.48252e-06 
714.697 2.4917e-06 
715.137 2.50204e-06 
715.576 2.51375e-06 
716.016 2.52702e-06 
716.455 2.54195e-06 
716.895 2.55839e-06 
717.334 2.57583e-06 
717.773 2.59316e-06 
718.213 2.6087e-06 
718.652 2.62048e-06 
719.092 2.62695e-06 
719.531 2.62772e-06 
719.971 2.62376e-06 
720.41 2.61686e-06 
720.85 2.6089e-06 
721.289 2.60128e-06 
721.729 2.59481e-06 
722.168 2.58979e-06 
722.607 2.58624e-06 
723.047 2.584e-06 
723.486 2.58289e-06 
723.926 2.58273e-06 
724.365 2.58331e-06 
724.805 2.58443e-06 
725.244 2.58583e-06 
725.684 2.58726e-06 
726.123 2.58841e-06 
726.562 2.58901e-06 
727.002 2.58887e-06 
727.441 2.58782e-06 
727.881 2.58582e-06 
728.32 2.5829e-06 
728.76 2.57923e-06 
729.199 2.57518e-06 
729.639 2.5711e-06 
730.078 2.56733e-06 
730.518 2.56408e-06 
730.957 2.56139e-06 
731.396 2.55908e-06 
731.836 2.55693e-06 
732.275 2.55475e-06 
732.715 2.55248e-06 
733.154 2.55009e-06 
733.594 2.54758e-06 
734.033 2.5449e-06 
734.473 2.54193e-06 
734.912 2.53853e-06 
735.352 2.53464e-06 
735.791 2.53037e-06 
736.23 2.52585e-06 
736.67 2.52129e-06 
737.109 2.51686e-06 
737.549 2.5127e-06 
737.988 2.50881e-06 
738.428 2.50522e-06 
738.867 2.50193e-06 
739.307 2.49904e-06 
739.746 2.49667e-06 
740.186 2.49485e-06 
740.625 2.49357e-06 
741.064 2.49273e-06 
741.504 2.49228e-06 
741.943 2.49217e-06 
742.383 2.49231e-06 
742.822 2.49259e-06 
743.262 2.4929e-06 
743.701 2.49316e-06 
744.141 2.49331e-06 
744.58 2.4933e-06 
745.02 2.49319e-06 
745.459 2.49304e-06 
745.898 2.49285e-06 
746.338 2.49262e-06 
746.777 2.49241e-06 
747.217 2.49233e-06 
747.656 2.49243e-06 
748.096 2.49272e-06 
748.535 2.49311e-06 
748.975 2.49351e-06 
749.414 2.49396e-06 
749.854 2.49455e-06 
750.293 2.49544e-06 
750.732 2.49685e-06 
751.172 2.49903e-06 
751.611 2.50218e-06 
752.051 2.5063e-06 
752.49 2.51134e-06 
752.93 2.51731e-06 
753.369 2.52429e-06 
753.809 2.53239e-06 
754.248 2.54159e-06 
754.688 2.55147e-06 
755.127 2.56212e-06 
755.566 2.57473e-06 
756.006 2.5909e-06 
756.445 2.61258e-06 
756.885 2.6425e-06 
757.324 2.68466e-06 
757.764 2.74531e-06 
758.203 2.83511e-06 
758.643 2.97347e-06 
759.082 3.19849e-06 
759.521 3.59169e-06 
759.961 4.3416e-06 
760.4 5.87678e-06 
760.84 8.56709e-06 
761.279 9.66316e-06 
761.719 7.41866e-06 
762.158 5.215e-06 
762.598 4.02451e-06 
763.037 3.42806e-06 
763.477 3.10556e-06 
763.916 2.91569e-06 
764.355 2.79587e-06 
764.795 2.71604e-06 
765.234 2.66055e-06 
765.674 2.62068e-06 
766.113 2.59126e-06 
766.553 2.5691e-06 
766.992 2.55212e-06 
767.432 2.53894e-06 
767.871 2.52863e-06 
768.311 2.52049e-06 
768.75 2.51405e-06 
769.189 2.50895e-06 
769.629 2.50493e-06 
770.068 2.50178e-06 
770.508 2.49934e-06 
770.947 2.49748e-06 
771.387 2.49613e-06 
771.826 2.49518e-06 
772.266 2.49459e-06 
772.705 2.4943e-06 
773.145 2.49427e-06 
773.584 2.49446e-06 
774.023 2.49484e-06 
774.463 2.4954e-06 
774.902 2.4961e-06 
775.342 2.49692e-06 
775.781 2.49786e-06 
776.221 2.4989e-06 
776.66 2.50003e-06 
777.1 2.50123e-06 
777.539 2.5025e-06 
777.979 2.50384e-06 
778.418 2.50523e-06 
778.857 2.50668e-06 
779.297 2.50817e-06 
779.736 2.50971e-06 
780.176 2.51128e-06 
780.615 2.51289e-06 
781.055 2.51452e-06 
781.494 2.51619e-06 
781.934 2.51787e-06 
782.373 2.51958e-06 
782.812 2.52131e-06 
783.252 2.52305e-06 
783.691 2.52481e-06 
784.131 2.52659e-06 
784.57 2.52837e-06 
785.01 2.53017e-06 
785.449 2.53197e-06 
785.889 2.53378e-06 
786.328 2.5356e-06 
786.768 2.53743e-06 
787.207 2.53926e-06 
787.646 2.5411e-06 
788.086 2.54295e-06 
788.525 2.5448e-06 
788.965 2.54666e-06 
789.404 2.54852e-06 
789.844 2.5504e-06 
790.283 2.55228e-06 
790.723 2.55417e-06 
791.162 2.55608e-06 
791.602 2.55799e-06 
792.041 2.55993e-06 
792.48 2.56187e-06 
792.92 2.56384e-06 
793.359 2.56582e-06 
793.799 2.56782e-06 
794.238 2.56983e-06 
794.678 2.57187e-06 
795.117 2.57393e-06 
795.557 2.576e-06 
795.996 2.5781e-06 
796.436 2.58021e-06 
796.875 2.58235e-06 
797.314 2.58451e-06 
797.754 2.58669e-06 
798.193 2.58888e-06 
798.633 2.5911e-06 
799.072 2.59334e-06 
799.512 2.5956e-06 
799.951 2.59787e-06 
800.391 2.60016e-06 
800.83 2.60246e-06 
801.27 2.60478e-06 
801.709 2.6071e-06 
802.148 2.60943e-06 
802.588 2.61177e-06 
803.027 2.61412e-06 
803.467 2.61646e-06 
803.906 2.61881e-06 
804.346 2.62115e-06 
804.785 2.62349e-06 
805.225 2.62583e-06 
805.664 2.62817e-06 
806.104 2.63049e-06 
806.543 2.63281e-06 
806.982 2.63513e-06 
807.422 2.63743e-06 
807.861 2.63972e-06 
808.301 2.64199e-06 
808.74 2.64425e-06 
809.18 2.6465e-06 
809.619 2.64873e-06 
810.059 2.65095e-06 
810.498 2.65316e-06 
810.938 2.65535e-06 
811.377 2.65753e-06 
811.816 2.6597e-06 
812.256 2.66186e-06 
812.695 2.66401e-06 
813.135 2.66615e-06 
813.574 2.66828e-06 
814.014 2.6704e-06 
814.453 2.67251e-06 
814.893 2.67461e-06 
815.332 2.6767e-06 
815.771 2.67879e-06 
816.211 2.68087e-06 
816.65 2.68294e-06 
817.09 2.68499e-06 
817.529 2.68704e-06 
817.969 2.68908e-06 
818.408 2.6911e-06 
818.848 2.69311e-06 
819.287 2.69508e-06 
819.727 2.69703e-06 
820.166 2.69894e-06 
820.605 2.70081e-06 
821.045 2.70262e-06 
821.484 2.70437e-06 
821.924 2.70602e-06 
822.363 2.70757e-06 
822.803 2.70898e-06 
823.242 2.71026e-06 
823.682 2.71141e-06 
824.121 2.71242e-06 
824.561 2.71334e-06 
825 2.71422e-06 
825.439 2.71512e-06 
825.879 2.71613e-06 
826.318 2.71736e-06 
826.758 2.71888e-06 
827.197 2.72076e-06 
827.637 2.72305e-06 
828.076 2.72575e-06 
828.516 2.72882e-06 
828.955 2.73224e-06 
829.395 2.73593e-06 
829.834 2.73984e-06 
830.273 2.7439e-06 
830.713 2.74804e-06 
831.152 2.75227e-06 
831.592 2.75657e-06 
832.031 2.761e-06 
832.471 2.76558e-06 
832.91 2.77036e-06 
833.35 2.77535e-06 
833.789 2.78056e-06 
834.229 2.78596e-06 
834.668 2.7915e-06 
835.107 2.79717e-06 
835.547 2.80294e-06 
835.986 2.80882e-06 
836.426 2.81483e-06 
836.865 2.82096e-06 
837.305 2.82724e-06 
837.744 2.83362e-06 
838.184 2.84006e-06 
838.623 2.84651e-06 
839.062 2.85293e-06 
839.502 2.85927e-06 
839.941 2.86552e-06 
840.381 2.87167e-06 
840.82 2.87766e-06 
841.26 2.88341e-06 
841.699 2.88874e-06 
842.139 2.89344e-06 
842.578 2.89725e-06 
843.018 2.89996e-06 
843.457 2.9014e-06 
843.896 2.90148e-06 
844.336 2.90023e-06 
844.775 2.89775e-06 
845.215 2.89438e-06 
845.654 2.89057e-06 
846.094 2.88676e-06 
846.533 2.88332e-06 
846.973 2.88045e-06 
847.412 2.8781e-06 
847.852 2.87605e-06 
848.291 2.87404e-06 
848.73 2.87192e-06 
849.17 2.86963e-06 
849.609 2.86718e-06 
850.049 2.86454e-06 
850.488 2.86162e-06 
850.928 2.85828e-06 
851.367 2.85437e-06 
851.807 2.84991e-06 
852.246 2.84502e-06 
852.686 2.83992e-06 
853.125 2.83483e-06 
853.564 2.82996e-06 
854.004 2.82539e-06 
854.443 2.82115e-06 
854.883 2.81725e-06 
855.322 2.81373e-06 
855.762 2.81074e-06 
856.201 2.80836e-06 
856.641 2.80664e-06 
857.08 2.80551e-06 
857.52 2.80488e-06 
857.959 2.80469e-06 
858.398 2.80487e-06 
858.838 2.80529e-06 
859.277 2.80584e-06 
859.717 2.80639e-06 
860.156 2.80685e-06 
860.596 2.80717e-06 
861.035 2.80732e-06 
861.475 2.80739e-06 
861.914 2.80743e-06 
862.354 2.80742e-06 
862.793 2.80738e-06 
863.232 2.80742e-06 
863.672 2.80764e-06 
864.111 2.80809e-06 
864.551 2.80872e-06 
864.99 2.80943e-06 
865.43 2.81016e-06 
865.869 2.81096e-06 
866.309 2.81199e-06 
866.748 2.81344e-06 
867.188 2.8156e-06 
867.627 2.81878e-06 
868.066 2.8231e-06 
868.506 2.82856e-06 
868.945 2.8351e-06 
869.385 2.84276e-06 
869.824 2.85166e-06 
870.264 2.86191e-06 
870.703 2.87331e-06 
871.143 2.88543e-06 
871.582 2.89889e-06 
872.021 2.91532e-06 
872.461 2.93674e-06 
872.9 2.96573e-06 
873.34 3.00602e-06 
873.779 3.06316e-06 
874.219 3.14613e-06 
874.658 3.27065e-06 
875.098 3.46619e-06 
875.537 3.79259e-06 
875.977 4.38222e-06 
876.416 5.54554e-06 
876.855 7.8867e-06 
877.295 1.08782e-05 
877.734 1.05047e-05 
878.174 7.66525e-06 
878.613 5.4623e-06 
879.053 4.34067e-06 
879.492 3.76847e-06 
879.932 3.45021e-06 
880.371 3.25824e-06 
880.811 3.13473e-06 
881.25 3.05119e-06 
881.689 2.99242e-06 
882.129 2.94978e-06 
882.568 2.91809e-06 
883.008 2.89408e-06 
883.447 2.87561e-06 
883.887 2.86125e-06 
884.326 2.85001e-06 
884.766 2.84117e-06 
885.205 2.8342e-06 
885.645 2.82874e-06 
886.084 2.82449e-06 
886.523 2.82123e-06 
886.963 2.81879e-06 
887.402 2.81703e-06 
887.842 2.81586e-06 
888.281 2.81517e-06 
888.721 2.81491e-06 
889.16 2.81502e-06 
889.6 2.81544e-06 
890.039 2.81613e-06 
890.479 2.81706e-06 
890.918 2.8182e-06 
891.357 2.81952e-06 
891.797 2.82099e-06 
892.236 2.8226e-06 
892.676 2.82433e-06 
893.115 2.82615e-06 
893.555 2.82807e-06 
893.994 2.83006e-06 
894.434 2.83211e-06 
894.873 2.83421e-06 
895.312 2.83636e-06 
895.752 2.83854e-06 
896.191 2.84075e-06 
896.631 2.84297e-06 
897.07 2.84521e-06 
897.51 2.84746e-06 
897.949 2.8497e-06 
898.389 2.85194e-06 
898.828 2.85417e-06 
899.268 2.85638e-06 
899.707 2.85859e-06 
900.146 2.86078e-06 
900.586 2.86296e-06 
901.025 2.86513e-06 
901.465 2.86728e-06 
901.904 2.86942e-06 
902.344 2.87156e-06 
902.783 2.87368e-06 
903.223 2.8758e-06 
903.662 2.8779e-06 
904.102 2.87999e-06 
904.541 2.88207e-06 
904.98 2.88414e-06 
905.42 2.88621e-06 
905.859 2.88826e-06 
906.299 2.8903e-06 
906.738 2.89233e-06 
907.178 2.89434e-06 
907.617 2.89633e-06 
908.057 2.8983e-06 
908.496 2.90023e-06 
908.936 2.9021e-06 
909.375 2.90391e-06 
909.814 2.90564e-06 
910.254 2.90728e-06 
910.693 2.90881e-06 
911.133 2.91017e-06 
911.572 2.91135e-06 
912.012 2.91229e-06 
912.451 2.91295e-06 
912.891 2.9133e-06 
913.33 2.91335e-06 
913.77 2.91311e-06 
914.209 2.91264e-06 
914.648 2.91205e-06 
915.088 2.91149e-06 
915.527 2.91115e-06 
915.967 2.91124e-06 
916.406 2.91194e-06 
916.846 2.91342e-06 
917.285 2.91576e-06 
917.725 2.91898e-06 
918.164 2.92305e-06 
918.604 2.92786e-06 
919.043 2.93331e-06 
919.482 2.93923e-06 
919.922 2.94549e-06 
920.361 2.95196e-06 
920.801 2.95861e-06 
921.24 2.96544e-06 
921.68 2.97252e-06 
922.119 2.97993e-06 
922.559 2.98777e-06 
922.998 2.99606e-06 
923.438 3.00482e-06 
923.877 3.01401e-06 
924.316 3.02354e-06 
924.756 3.03333e-06 
925.195 3.04335e-06 
925.635 3.0536e-06 
926.074 3.0641e-06 
926.514 3.07489e-06 
926.953 3.08597e-06 
927.393 3.09729e-06 
927.832 3.10875e-06 
928.271 3.12024e-06 
928.711 3.13164e-06 
929.15 3.14289e-06 
929.59 3.15394e-06 
930.029 3.16476e-06 
930.469 3.17526e-06 
930.908 3.18524e-06 
931.348 3.19436e-06 
931.787 3.20216e-06 
932.227 3.20809e-06 
932.666 3.21166e-06 
933.105 3.21251e-06 
933.545 3.21041e-06 
933.984 3.20537e-06 
934.424 3.19765e-06 
934.863 3.18786e-06 
935.303 3.17698e-06 
935.742 3.166e-06 
936.182 3.15573e-06 
936.621 3.14666e-06 
937.061 3.13875e-06 
937.5 3.13153e-06 
937.939 3.12446e-06 
938.379 3.11717e-06 
938.818 3.1095e-06 
939.258 3.10143e-06 
939.697 3.09296e-06 
940.137 3.08388e-06 
940.576 3.0739e-06 
941.016 3.06271e-06 
941.455 3.05027e-06 
941.895 3.03685e-06 
942.334 3.02288e-06 
942.773 3.00886e-06 
943.213 2.99524e-06 
943.652 2.98228e-06 
944.092 2.97002e-06 
944.531 2.95848e-06 
944.971 2.94775e-06 
945.41 2.93811e-06 
945.85 2.92981e-06 
946.289 2.92291e-06 
946.729 2.91732e-06 
947.168 2.91282e-06 
947.607 2.9093e-06 
948.047 2.90658e-06 
948.486 2.90442e-06 
948.926 2.90255e-06 
949.365 2.90069e-06 
949.805 2.89865e-06 
950.244 2.89628e-06 
950.684 2.89353e-06 
951.123 2.89055e-06 
951.562 2.88747e-06 
952.002 2.88427e-06 
952.441 2.88099e-06 
952.881 2.87782e-06 
953.32 2.87502e-06 
953.76 2.87271e-06 
954.199 2.87082e-06 
954.639 2.86912e-06 
955.078 2.86749e-06 
955.518 2.86601e-06 
955.957 2.86501e-06 
956.396 2.86492e-06 
956.836 2.86632e-06 
957.275 2.86988e-06 
957.715 2.87596e-06 
958.154 2.88455e-06 
958.594 2.89556e-06 
959.033 2.90904e-06 
959.473 2.92525e-06 
959.912 2.94448e-06 
960.352 2.96638e-06 
960.791 2.9901e-06 
961.23 3.01663e-06 
961.67 3.04936e-06 
962.109 3.0927e-06 
962.549 3.15222e-06 
962.988 3.23582e-06 
963.428 3.3553e-06 
963.867 3.52961e-06 
964.307 3.79166e-06 
964.746 4.2027e-06 
965.186 4.88622e-06 
965.625 6.11335e-06 
966.064 8.51771e-06 
966.504 1.33641e-05 
966.943 1.99804e-05 
967.383 2.04087e-05 
967.822 1.44287e-05 
968.262 9.13432e-06 
968.701 6.40335e-06 
969.141 5.02265e-06 
969.58 4.26187e-06 
970.02 3.80599e-06 
970.459 3.51375e-06 
970.898 3.31619e-06 
971.338 3.17692e-06 
971.777 3.07536e-06 
972.217 2.99926e-06 
972.656 2.94093e-06 
973.096 2.89538e-06 
973.535 2.85925e-06 
973.975 2.83021e-06 
974.414 2.80661e-06 
974.854 2.78726e-06 
975.293 2.77127e-06 
975.732 2.75797e-06 
976.172 2.74686e-06 
976.611 2.73754e-06 
977.051 2.7297e-06 
977.49 2.7231e-06 
977.93 2.71755e-06 
978.369 2.71289e-06 
978.809 2.70898e-06 
979.248 2.70572e-06 
979.688 2.70302e-06 
980.127 2.70081e-06 
980.566 2.69903e-06 
981.006 2.69763e-06 
981.445 2.69656e-06 
981.885 2.69578e-06 
982.324 2.69526e-06 
982.764 2.69498e-06 
983.203 2.69491e-06 
983.643 2.69502e-06 
984.082 2.6953e-06 
984.521 2.69573e-06 
984.961 2.6963e-06 
985.4 2.69699e-06 
985.84 2.6978e-06 
986.279 2.69871e-06 
986.719 2.69971e-06 
987.158 2.7008e-06 
987.598 2.70197e-06 
988.037 2.7032e-06 
988.477 2.7045e-06 
988.916 2.70586e-06 
989.355 2.70728e-06 
989.795 2.70875e-06 
990.234 2.71026e-06 
990.674 2.71182e-06 
991.113 2.71342e-06 
991.553 2.71506e-06 
991.992 2.71674e-06 
992.432 2.71844e-06 
992.871 2.72019e-06 
993.311 2.72196e-06 
993.75 2.72377e-06 
994.189 2.7256e-06 
994.629 2.72747e-06 
995.068 2.72936e-06 
995.508 2.73128e-06 
995.947 2.73323e-06 
996.387 2.7352e-06 
996.826 2.7372e-06 
997.266 2.73923e-06 
997.705 2.74128e-06 
998.145 2.74335e-06 
998.584 2.74544e-06 
999.023 2.74756e-06 
999.463 2.7497e-06 
999.902 2.75185e-06 
1000.34 2.75403e-06 
1000.78 2.75622e-06 
1001.22 2.75844e-06 
1001.66 2.76066e-06 
1002.1 2.7629e-06 
1002.54 2.76516e-06 
1002.98 2.76742e-06 
1003.42 2.7697e-06 
1003.86 2.77199e-06 
1004.3 2.77429e-06 
1004.74 2.7766e-06 
1005.18 2.77892e-06 
1005.62 2.78124e-06 
1006.05 2.78358e-06 
1006.49 2.78592e-06 
1006.93 2.78827e-06 
1007.37 2.79063e-06 
1007.81 2.793e-06 
1008.25 2.79538e-06 
1008.69 2.79777e-06 
1009.13 2.80018e-06 
1009.57 2.80259e-06 
1010.01 2.80502e-06 
1010.45 2.80746e-06 
1010.89 2.80991e-06 
1011.33 2.81238e-06 
1011.77 2.81487e-06 
1012.21 2.81737e-06 
1012.65 2.81988e-06 
1013.09 2.82241e-06 
1013.53 2.82495e-06 
1013.96 2.82752e-06 
1014.4 2.83009e-06 
1014.84 2.83268e-06 
1015.28 2.83528e-06 
1015.72 2.83789e-06 
1016.16 2.84052e-06 
1016.6 2.84315e-06 
1017.04 2.8458e-06 
1017.48 2.84845e-06 
1017.92 2.8511e-06 
1018.36 2.85377e-06 
1018.8 2.85644e-06 
1019.24 2.85911e-06 
1019.68 2.86178e-06 
1020.12 2.86446e-06 
1020.56 2.86714e-06 
1021 2.86983e-06 
1021.44 2.87251e-06 
1021.88 2.87521e-06 
1022.31 2.8779e-06 
