#energy geo_1 
600 1.8712e-06 
600.439 1.87272e-06 
600.879 1.87427e-06 
601.318 1.87587e-06 
601.758 1.87752e-06 
602.197 1.87924e-06 
602.637 1.88101e-06 
603.076 1.88285e-06 
603.516 1.88476e-06 
603.955 1.88673e-06 
604.395 1.88876e-06 
604.834 1.89085e-06 
605.273 1.893e-06 
605.713 1.8952e-06 
606.152 1.89747e-06 
606.592 1.89979e-06 
607.031 1.90218e-06 
607.471 1.90465e-06 
607.91 1.9072e-06 
608.35 1.90985e-06 
608.789 1.9126e-06 
609.229 1.91545e-06 
609.668 1.91843e-06 
610.107 1.92154e-06 
610.547 1.92478e-06 
610.986 1.92816e-06 
611.426 1.93168e-06 
611.865 1.93534e-06 
612.305 1.93915e-06 
612.744 1.94309e-06 
613.184 1.94717e-06 
613.623 1.95141e-06 
614.062 1.95583e-06 
614.502 1.96048e-06 
614.941 1.96546e-06 
615.381 1.97088e-06 
615.82 1.97688e-06 
616.26 1.98363e-06 
616.699 1.99134e-06 
617.139 2.00023e-06 
617.578 2.01057e-06 
618.018 2.02267e-06 
618.457 2.03689e-06 
618.896 2.05364e-06 
619.336 2.07337e-06 
619.775 2.09649e-06 
620.215 2.12331e-06 
620.654 2.15378e-06 
621.094 2.18715e-06 
621.533 2.22157e-06 
621.973 2.2537e-06 
622.412 2.27896e-06 
622.852 2.29272e-06 
623.291 2.29226e-06 
623.73 2.27814e-06 
624.17 2.25392e-06 
624.609 2.22441e-06 
625.049 2.19382e-06 
625.488 2.165e-06 
625.928 2.13938e-06 
626.367 2.11741e-06 
626.807 2.09901e-06 
627.246 2.0838e-06 
627.686 2.07135e-06 
628.125 2.06121e-06 
628.564 2.053e-06 
629.004 2.04638e-06 
629.443 2.04107e-06 
629.883 2.03685e-06 
630.322 2.03354e-06 
630.762 2.03097e-06 
631.201 2.02903e-06 
631.641 2.02762e-06 
632.08 2.02666e-06 
632.52 2.02607e-06 
632.959 2.02581e-06 
633.398 2.02583e-06 
633.838 2.02609e-06 
634.277 2.02656e-06 
634.717 2.02721e-06 
635.156 2.02802e-06 
635.596 2.02897e-06 
636.035 2.03004e-06 
636.475 2.03122e-06 
636.914 2.03249e-06 
637.354 2.03385e-06 
637.793 2.03529e-06 
638.232 2.0368e-06 
638.672 2.03838e-06 
639.111 2.04e-06 
639.551 2.04169e-06 
639.99 2.04341e-06 
640.43 2.04518e-06 
640.869 2.04699e-06 
641.309 2.04884e-06 
641.748 2.05072e-06 
642.188 2.05263e-06 
642.627 2.05457e-06 
643.066 2.05654e-06 
643.506 2.05853e-06 
643.945 2.06054e-06 
644.385 2.06258e-06 
644.824 2.06464e-06 
645.264 2.06671e-06 
645.703 2.06881e-06 
646.143 2.07092e-06 
646.582 2.07305e-06 
647.021 2.07519e-06 
647.461 2.07734e-06 
647.9 2.07952e-06 
648.34 2.0817e-06 
648.779 2.08389e-06 
649.219 2.0861e-06 
649.658 2.08831e-06 
650.098 2.09054e-06 
650.537 2.09278e-06 
650.977 2.09502e-06 
651.416 2.09727e-06 
651.855 2.09953e-06 
652.295 2.10179e-06 
652.734 2.10406e-06 
653.174 2.10634e-06 
653.613 2.10862e-06 
654.053 2.11091e-06 
654.492 2.1132e-06 
654.932 2.1155e-06 
655.371 2.1178e-06 
655.811 2.1201e-06 
656.25 2.1224e-06 
656.689 2.12471e-06 
657.129 2.12702e-06 
657.568 2.12933e-06 
658.008 2.13164e-06 
658.447 2.13396e-06 
658.887 2.13628e-06 
659.326 2.1386e-06 
659.766 2.14092e-06 
660.205 2.14324e-06 
660.645 2.14556e-06 
661.084 2.14789e-06 
661.523 2.15022e-06 
661.963 2.15256e-06 
662.402 2.15489e-06 
662.842 2.15723e-06 
663.281 2.15957e-06 
663.721 2.16192e-06 
664.16 2.16427e-06 
664.6 2.16663e-06 
665.039 2.16898e-06 
665.479 2.17135e-06 
665.918 2.17372e-06 
666.357 2.17609e-06 
666.797 2.17847e-06 
667.236 2.18085e-06 
667.676 2.18324e-06 
668.115 2.18564e-06 
668.555 2.18804e-06 
668.994 2.19044e-06 
669.434 2.19285e-06 
669.873 2.19527e-06 
670.312 2.19769e-06 
670.752 2.20011e-06 
671.191 2.20255e-06 
671.631 2.20498e-06 
672.07 2.20742e-06 
672.51 2.20986e-06 
672.949 2.21231e-06 
673.389 2.21476e-06 
673.828 2.21721e-06 
674.268 2.21967e-06 
674.707 2.22212e-06 
675.146 2.22459e-06 
675.586 2.22705e-06 
676.025 2.22951e-06 
676.465 2.23198e-06 
676.904 2.23445e-06 
677.344 2.23692e-06 
677.783 2.23939e-06 
678.223 2.24186e-06 
678.662 2.24434e-06 
679.102 2.24681e-06 
679.541 2.24929e-06 
679.98 2.25177e-06 
680.42 2.25425e-06 
680.859 2.25673e-06 
681.299 2.25922e-06 
681.738 2.2617e-06 
682.178 2.26419e-06 
682.617 2.26668e-06 
683.057 2.26918e-06 
683.496 2.27167e-06 
683.936 2.27417e-06 
684.375 2.27667e-06 
684.814 2.27918e-06 
685.254 2.28169e-06 
685.693 2.2842e-06 
686.133 2.28672e-06 
686.572 2.28924e-06 
687.012 2.29176e-06 
687.451 2.29429e-06 
687.891 2.29682e-06 
688.33 2.29935e-06 
688.77 2.30189e-06 
689.209 2.30443e-06 
689.648 2.30697e-06 
690.088 2.30951e-06 
690.527 2.31206e-06 
690.967 2.31461e-06 
691.406 2.31716e-06 
691.846 2.31971e-06 
692.285 2.32226e-06 
692.725 2.32482e-06 
693.164 2.32738e-06 
693.604 2.32994e-06 
694.043 2.3325e-06 
694.482 2.33506e-06 
694.922 2.33762e-06 
695.361 2.34019e-06 
695.801 2.34276e-06 
696.24 2.34533e-06 
696.68 2.3479e-06 
697.119 2.35048e-06 
697.559 2.35306e-06 
697.998 2.35564e-06 
698.438 2.35822e-06 
698.877 2.36081e-06 
699.316 2.36339e-06 
699.756 2.36599e-06 
700.195 2.36858e-06 
700.635 2.37118e-06 
701.074 2.37378e-06 
701.514 2.37638e-06 
701.953 2.37899e-06 
702.393 2.3816e-06 
702.832 2.38421e-06 
703.271 2.38682e-06 
703.711 2.38943e-06 
704.15 2.39205e-06 
704.59 2.39466e-06 
705.029 2.39727e-06 
705.469 2.39988e-06 
705.908 2.4025e-06 
706.348 2.40511e-06 
706.787 2.40772e-06 
707.227 2.41033e-06 
707.666 2.41294e-06 
708.105 2.41554e-06 
708.545 2.41814e-06 
708.984 2.42075e-06 
709.424 2.42335e-06 
709.863 2.42595e-06 
710.303 2.42856e-06 
710.742 2.43116e-06 
711.182 2.43376e-06 
711.621 2.43637e-06 
712.061 2.43897e-06 
712.5 2.44158e-06 
712.939 2.4442e-06 
713.379 2.44681e-06 
713.818 2.44943e-06 
714.258 2.45206e-06 
714.697 2.45469e-06 
715.137 2.45732e-06 
715.576 2.45996e-06 
716.016 2.4626e-06 
716.455 2.46526e-06 
716.895 2.46791e-06 
717.334 2.47057e-06 
717.773 2.47323e-06 
718.213 2.47589e-06 
718.652 2.47856e-06 
719.092 2.48123e-06 
719.531 2.4839e-06 
719.971 2.48658e-06 
720.41 2.48925e-06 
720.85 2.49192e-06 
721.289 2.49459e-06 
721.729 2.49726e-06 
722.168 2.49993e-06 
722.607 2.50259e-06 
723.047 2.50525e-06 
723.486 2.50792e-06 
723.926 2.51058e-06 
724.365 2.51324e-06 
724.805 2.51589e-06 
725.244 2.51855e-06 
725.684 2.52121e-06 
726.123 2.52388e-06 
726.562 2.52654e-06 
727.002 2.52921e-06 
727.441 2.53188e-06 
727.881 2.53456e-06 
728.32 2.53724e-06 
728.76 2.53993e-06 
729.199 2.54262e-06 
729.639 2.54532e-06 
730.078 2.54803e-06 
730.518 2.55074e-06 
730.957 2.55346e-06 
731.396 2.55619e-06 
731.836 2.55892e-06 
732.275 2.56166e-06 
732.715 2.5644e-06 
733.154 2.56714e-06 
733.594 2.56989e-06 
734.033 2.57265e-06 
734.473 2.5754e-06 
734.912 2.57816e-06 
735.352 2.58092e-06 
735.791 2.58369e-06 
736.23 2.58646e-06 
736.67 2.58923e-06 
737.109 2.592e-06 
737.549 2.59478e-06 
737.988 2.59757e-06 
738.428 2.60036e-06 
738.867 2.60316e-06 
739.307 2.60596e-06 
739.746 2.60878e-06 
740.186 2.6116e-06 
740.625 2.61444e-06 
741.064 2.61728e-06 
741.504 2.62013e-06 
741.943 2.62298e-06 
742.383 2.62584e-06 
742.822 2.62871e-06 
743.262 2.63158e-06 
743.701 2.63446e-06 
744.141 2.63733e-06 
744.58 2.6402e-06 
745.02 2.64307e-06 
745.459 2.64593e-06 
745.898 2.64878e-06 
746.338 2.65163e-06 
746.777 2.65446e-06 
747.217 2.65729e-06 
747.656 2.6601e-06 
748.096 2.6629e-06 
748.535 2.66569e-06 
748.975 2.66846e-06 
749.414 2.67124e-06 
749.854 2.674e-06 
750.293 2.67676e-06 
750.732 2.67952e-06 
751.172 2.68227e-06 
751.611 2.68503e-06 
752.051 2.68779e-06 
752.49 2.69055e-06 
752.93 2.69332e-06 
753.369 2.69609e-06 
753.809 2.69886e-06 
754.248 2.70164e-06 
754.688 2.70443e-06 
755.127 2.70721e-06 
755.566 2.70999e-06 
756.006 2.71277e-06 
756.445 2.71554e-06 
756.885 2.71831e-06 
757.324 2.72107e-06 
757.764 2.72383e-06 
758.203 2.72657e-06 
758.643 2.72932e-06 
759.082 2.73207e-06 
759.521 2.73485e-06 
759.961 2.73766e-06 
760.4 2.74048e-06 
760.84 2.74332e-06 
761.279 2.74619e-06 
761.719 2.74907e-06 
762.158 2.75199e-06 
762.598 2.75493e-06 
763.037 2.75789e-06 
763.477 2.76089e-06 
763.916 2.76392e-06 
764.355 2.76699e-06 
764.795 2.77009e-06 
765.234 2.77323e-06 
765.674 2.7764e-06 
766.113 2.77962e-06 
766.553 2.78288e-06 
766.992 2.78618e-06 
767.432 2.78952e-06 
767.871 2.79289e-06 
768.311 2.79631e-06 
768.75 2.79977e-06 
769.189 2.80326e-06 
769.629 2.80679e-06 
770.068 2.81034e-06 
770.508 2.81392e-06 
770.947 2.81753e-06 
771.387 2.82117e-06 
771.826 2.82482e-06 
772.266 2.82848e-06 
772.705 2.83217e-06 
773.145 2.83587e-06 
773.584 2.83958e-06 
774.023 2.84331e-06 
774.463 2.84704e-06 
774.902 2.85079e-06 
775.342 2.85456e-06 
775.781 2.85832e-06 
776.221 2.86209e-06 
776.66 2.86586e-06 
777.1 2.86962e-06 
777.539 2.87336e-06 
777.979 2.87709e-06 
778.418 2.88078e-06 
778.857 2.88444e-06 
779.297 2.88805e-06 
779.736 2.89161e-06 
780.176 2.89511e-06 
780.615 2.89854e-06 
781.055 2.90192e-06 
781.494 2.90523e-06 
781.934 2.90848e-06 
782.373 2.91166e-06 
782.812 2.91479e-06 
783.252 2.91787e-06 
783.691 2.9209e-06 
784.131 2.92388e-06 
784.57 2.92682e-06 
785.01 2.92972e-06 
785.449 2.93257e-06 
785.889 2.93539e-06 
786.328 2.93815e-06 
786.768 2.94087e-06 
787.207 2.94354e-06 
787.646 2.94617e-06 
788.086 2.94874e-06 
788.525 2.95125e-06 
788.965 2.95371e-06 
789.404 2.95611e-06 
789.844 2.95845e-06 
790.283 2.96073e-06 
790.723 2.96294e-06 
791.162 2.96508e-06 
791.602 2.96715e-06 
792.041 2.96915e-06 
792.48 2.97106e-06 
792.92 2.97291e-06 
793.359 2.97468e-06 
793.799 2.97638e-06 
794.238 2.97802e-06 
794.678 2.9796e-06 
795.117 2.98113e-06 
795.557 2.98261e-06 
795.996 2.98405e-06 
796.436 2.98545e-06 
796.875 2.98681e-06 
797.314 2.98812e-06 
797.754 2.98938e-06 
798.193 2.9906e-06 
798.633 2.99178e-06 
799.072 2.99292e-06 
799.512 2.99405e-06 
799.951 2.99517e-06 
800.391 2.9963e-06 
800.83 2.99747e-06 
801.27 2.99868e-06 
801.709 2.99995e-06 
802.148 3.00128e-06 
802.588 3.00266e-06 
803.027 3.00409e-06 
803.467 3.00555e-06 
803.906 3.00704e-06 
804.346 3.00856e-06 
804.785 3.01013e-06 
805.225 3.01175e-06 
805.664 3.01347e-06 
806.104 3.0153e-06 
806.543 3.01725e-06 
806.982 3.01934e-06 
807.422 3.02152e-06 
807.861 3.02376e-06 
808.301 3.026e-06 
808.74 3.02819e-06 
809.18 3.0303e-06 
809.619 3.03233e-06 
810.059 3.03434e-06 
810.498 3.03646e-06 
810.938 3.03882e-06 
811.377 3.0416e-06 
811.816 3.04497e-06 
812.256 3.04905e-06 
812.695 3.05392e-06 
813.135 3.05955e-06 
813.574 3.06586e-06 
814.014 3.07274e-06 
814.453 3.08005e-06 
814.893 3.08768e-06 
815.332 3.09553e-06 
815.771 3.10358e-06 
816.211 3.11184e-06 
816.65 3.12039e-06 
817.09 3.12929e-06 
817.529 3.13856e-06 
817.969 3.14811e-06 
818.408 3.15781e-06 
818.848 3.16744e-06 
819.287 3.17679e-06 
819.727 3.18569e-06 
820.166 3.19404e-06 
820.605 3.20182e-06 
821.045 3.20901e-06 
821.484 3.21561e-06 
821.924 3.22158e-06 
822.363 3.22686e-06 
822.803 3.23137e-06 
823.242 3.23508e-06 
823.682 3.23801e-06 
824.121 3.24027e-06 
824.561 3.24195e-06 
825 3.24309e-06 
825.439 3.24367e-06 
825.879 3.24366e-06 
826.318 3.24309e-06 
826.758 3.24205e-06 
827.197 3.24065e-06 
827.637 3.23903e-06 
828.076 3.23723e-06 
828.516 3.23521e-06 
828.955 3.23291e-06 
829.395 3.2303e-06 
829.834 3.22742e-06 
830.273 3.22436e-06 
830.713 3.22109e-06 
831.152 3.21753e-06 
831.592 3.21349e-06 
832.031 3.20879e-06 
832.471 3.20331e-06 
832.91 3.19704e-06 
833.35 3.19003e-06 
833.789 3.18241e-06 
834.229 3.17436e-06 
834.668 3.16618e-06 
835.107 3.15815e-06 
835.547 3.15051e-06 
835.986 3.14334e-06 
836.426 3.1366e-06 
836.865 3.13027e-06 
837.305 3.12451e-06 
837.744 3.11971e-06 
838.184 3.11626e-06 
838.623 3.11442e-06 
839.062 3.11414e-06 
839.502 3.11488e-06 
839.941 3.11596e-06 
840.381 3.11687e-06 
840.82 3.11745e-06 
841.26 3.11771e-06 
841.699 3.11778e-06 
842.139 3.11779e-06 
842.578 3.11799e-06 
843.018 3.11855e-06 
843.457 3.11959e-06 
843.896 3.12122e-06 
844.336 3.1236e-06 
844.775 3.12696e-06 
845.215 3.1315e-06 
845.654 3.13743e-06 
846.094 3.14482e-06 
846.533 3.15373e-06 
846.973 3.16432e-06 
847.412 3.1768e-06 
847.852 3.19135e-06 
848.291 3.20735e-06 
848.73 3.22284e-06 
849.17 3.23456e-06 
849.609 3.23932e-06 
850.049 3.23545e-06 
850.488 3.22516e-06 
850.928 3.21261e-06 
851.367 3.20193e-06 
851.807 3.19593e-06 
852.246 3.19626e-06 
852.686 3.20419e-06 
853.125 3.22107e-06 
853.564 3.24843e-06 
854.004 3.28897e-06 
854.443 3.34748e-06 
854.883 3.43167e-06 
855.322 3.55453e-06 
855.762 3.73937e-06 
856.201 4.03124e-06 
856.641 4.52415e-06 
857.08 5.43038e-06 
857.52 7.2469e-06 
857.959 1.07863e-05 
858.398 1.42045e-05 
858.838 1.24754e-05 
859.277 8.6522e-06 
859.717 6.14243e-06 
860.156 4.88893e-06 
860.596 4.23701e-06 
861.035 3.86667e-06 
861.475 3.63939e-06 
861.914 3.49116e-06 
862.354 3.38977e-06 
862.793 3.31778e-06 
863.232 3.26513e-06 
863.672 3.22569e-06 
864.111 3.1956e-06 
864.551 3.17226e-06 
864.99 3.15394e-06 
865.43 3.13944e-06 
865.869 3.1279e-06 
866.309 3.1187e-06 
866.748 3.11137e-06 
867.188 3.10554e-06 
867.627 3.10093e-06 
868.066 3.09734e-06 
868.506 3.09461e-06 
868.945 3.09259e-06 
869.385 3.0912e-06 
869.824 3.09034e-06 
870.264 3.08995e-06 
870.703 3.08997e-06 
871.143 3.09036e-06 
871.582 3.0911e-06 
872.021 3.09213e-06 
872.461 3.09344e-06 
872.9 3.09501e-06 
873.34 3.09681e-06 
873.779 3.09883e-06 
874.219 3.10105e-06 
874.658 3.10345e-06 
875.098 3.106e-06 
875.537 3.10871e-06 
875.977 3.11154e-06 
876.416 3.11449e-06 
876.855 3.11753e-06 
877.295 3.12066e-06 
877.734 3.12386e-06 
878.174 3.12711e-06 
878.613 3.13041e-06 
879.053 3.13375e-06 
879.492 3.13713e-06 
879.932 3.14053e-06 
880.371 3.14397e-06 
880.811 3.14743e-06 
881.25 3.15092e-06 
881.689 3.15444e-06 
882.129 3.158e-06 
882.568 3.16158e-06 
883.008 3.1652e-06 
883.447 3.16885e-06 
883.887 3.17251e-06 
884.326 3.17618e-06 
884.766 3.17985e-06 
885.205 3.18351e-06 
885.645 3.18714e-06 
886.084 3.19072e-06 
886.523 3.19424e-06 
886.963 3.19768e-06 
887.402 3.20104e-06 
887.842 3.2043e-06 
888.281 3.20747e-06 
888.721 3.21053e-06 
889.16 3.21348e-06 
889.6 3.21633e-06 
890.039 3.21909e-06 
890.479 3.22179e-06 
890.918 3.22449e-06 
891.357 3.22719e-06 
891.797 3.22989e-06 
892.236 3.23259e-06 
892.676 3.2353e-06 
893.115 3.238e-06 
893.555 3.2407e-06 
893.994 3.24342e-06 
894.434 3.24614e-06 
894.873 3.24887e-06 
895.312 3.25162e-06 
895.752 3.25438e-06 
896.191 3.25716e-06 
896.631 3.25997e-06 
897.07 3.26279e-06 
897.51 3.26564e-06 
897.949 3.2685e-06 
898.389 3.27139e-06 
898.828 3.27429e-06 
899.268 3.2772e-06 
899.707 3.2801e-06 
900.146 3.28302e-06 
900.586 3.28596e-06 
901.025 3.28889e-06 
901.465 3.29184e-06 
901.904 3.29479e-06 
902.344 3.29775e-06 
902.783 3.30072e-06 
903.223 3.30368e-06 
903.662 3.30664e-06 
904.102 3.30957e-06 
904.541 3.31247e-06 
904.98 3.31535e-06 
905.42 3.31821e-06 
905.859 3.32104e-06 
906.299 3.32388e-06 
906.738 3.32674e-06 
907.178 3.32963e-06 
907.617 3.33258e-06 
908.057 3.33558e-06 
908.496 3.33865e-06 
908.936 3.34178e-06 
909.375 3.34492e-06 
909.814 3.34805e-06 
910.254 3.35112e-06 
910.693 3.35411e-06 
911.133 3.35699e-06 
911.572 3.35977e-06 
912.012 3.36246e-06 
912.451 3.36509e-06 
912.891 3.3677e-06 
913.33 3.3703e-06 
913.77 3.37291e-06 
914.209 3.3755e-06 
914.648 3.37801e-06 
915.088 3.38039e-06 
915.527 3.38256e-06 
915.967 3.38448e-06 
916.406 3.38617e-06 
916.846 3.38772e-06 
917.285 3.3893e-06 
917.725 3.3911e-06 
918.164 3.39338e-06 
918.604 3.39636e-06 
919.043 3.40023e-06 
919.482 3.40509e-06 
919.922 3.41091e-06 
920.361 3.41756e-06 
920.801 3.42488e-06 
921.24 3.43266e-06 
921.68 3.44072e-06 
922.119 3.44893e-06 
922.559 3.45722e-06 
922.998 3.46561e-06 
923.438 3.4742e-06 
923.877 3.48308e-06 
924.316 3.49225e-06 
924.756 3.50161e-06 
925.195 3.51099e-06 
925.635 3.52007e-06 
926.074 3.52858e-06 
926.514 3.53628e-06 
926.953 3.54303e-06 
927.393 3.54881e-06 
927.832 3.55362e-06 
928.271 3.55743e-06 
928.711 3.56021e-06 
929.15 3.56183e-06 
929.59 3.5622e-06 
930.029 3.56128e-06 
930.469 3.55912e-06 
930.908 3.55589e-06 
931.348 3.55178e-06 
931.787 3.54689e-06 
932.227 3.54127e-06 
932.666 3.53492e-06 
933.105 3.5279e-06 
933.545 3.52036e-06 
933.984 3.51249e-06 
934.424 3.50442e-06 
934.863 3.49621e-06 
935.303 3.48778e-06 
935.742 3.47902e-06 
936.182 3.46993e-06 
936.621 3.46061e-06 
937.061 3.45122e-06 
937.5 3.44184e-06 
937.939 3.43239e-06 
938.379 3.42262e-06 
938.818 3.41224e-06 
939.258 3.40094e-06 
939.697 3.38857e-06 
940.137 3.37503e-06 
940.576 3.36038e-06 
941.016 3.34484e-06 
941.455 3.32893e-06 
941.895 3.31334e-06 
942.334 3.29881e-06 
942.773 3.28594e-06 
943.213 3.27519e-06 
943.652 3.26694e-06 
944.092 3.26174e-06 
944.531 3.26018e-06 
944.971 3.26268e-06 
945.41 3.26933e-06 
945.85 3.27968e-06 
946.289 3.29262e-06 
946.729 3.30685e-06 
947.168 3.32147e-06 
947.607 3.33619e-06 
948.047 3.3512e-06 
948.486 3.36689e-06 
948.926 3.38358e-06 
949.365 3.40148e-06 
949.805 3.42055e-06 
950.244 3.44041e-06 
950.684 3.46058e-06 
951.123 3.48073e-06 
951.562 3.5008e-06 
952.002 3.5209e-06 
952.441 3.54126e-06 
952.881 3.56201e-06 
953.32 3.58317e-06 
953.76 3.60479e-06 
954.199 3.62696e-06 
954.639 3.64975e-06 
955.078 3.67228e-06 
955.518 3.69198e-06 
955.957 3.70454e-06 
956.396 3.70549e-06 
956.836 3.69251e-06 
957.275 3.66831e-06 
957.715 3.63886e-06 
958.154 3.61029e-06 
958.594 3.58708e-06 
959.033 3.57198e-06 
959.473 3.56708e-06 
959.912 3.5742e-06 
960.352 3.59532e-06 
960.791 3.63396e-06 
961.23 3.6967e-06 
961.67 3.7944e-06 
962.109 3.94505e-06 
962.549 4.18065e-06 
962.988 4.56288e-06 
963.428 5.22097e-06 
963.867 6.44761e-06 
964.307 8.92498e-06 
964.746 1.37101e-05 
965.186 1.82502e-05 
965.625 1.63575e-05 
966.064 1.09988e-05 
966.504 7.36739e-06 
966.943 5.54335e-06 
967.383 4.58409e-06 
967.822 4.02866e-06 
968.262 3.67812e-06 
968.701 3.44117e-06 
969.141 3.27275e-06 
969.58 3.1493e-06 
970.02 3.05755e-06 
970.459 2.98917e-06 
970.898 2.93775e-06 
971.338 2.89777e-06 
971.777 2.86498e-06 
972.217 2.83671e-06 
972.656 2.81161e-06 
973.096 2.78902e-06 
973.535 2.76865e-06 
973.975 2.75058e-06 
974.414 2.73505e-06 
974.854 2.72217e-06 
975.293 2.712e-06 
975.732 2.70475e-06 
976.172 2.70085e-06 
976.611 2.70081e-06 
977.051 2.70513e-06 
977.49 2.71409e-06 
977.93 2.72782e-06 
978.369 2.74654e-06 
978.809 2.77072e-06 
979.248 2.80105e-06 
979.688 2.83693e-06 
980.127 2.8746e-06 
980.566 2.90601e-06 
981.006 2.92138e-06 
981.445 2.91302e-06 
981.885 2.88195e-06 
982.324 2.83834e-06 
982.764 2.79485e-06 
983.203 2.76161e-06 
983.643 2.74477e-06 
984.082 2.74823e-06 
984.521 2.77568e-06 
984.961 2.83106e-06 
985.4 2.92014e-06 
985.84 3.0535e-06 
986.279 3.24879e-06 
986.719 3.53496e-06 
987.158 3.96249e-06 
987.598 4.62595e-06 
988.037 5.71626e-06 
988.477 7.6507e-06 
988.916 1.14021e-05 
989.355 1.8996e-05 
989.795 3.02231e-05 
990.234 3.26271e-05 
990.674 2.32177e-05 
991.113 1.37718e-05 
991.553 8.79916e-06 
991.992 6.30236e-06 
992.432 4.93922e-06 
992.871 4.12838e-06 
993.311 3.61119e-06 
993.75 3.26262e-06 
994.189 3.01721e-06 
994.629 2.83824e-06 
995.068 2.70392e-06 
995.508 2.60065e-06 
995.947 2.51965e-06 
996.387 2.45502e-06 
996.826 2.4027e-06 
997.266 2.3598e-06 
997.705 2.32423e-06 
998.145 2.29447e-06 
998.584 2.26935e-06 
999.023 2.248e-06 
999.463 2.22973e-06 
999.902 2.21402e-06 
1000.34 2.20043e-06 
1000.78 2.18864e-06 
1001.22 2.17836e-06 
1001.66 2.16938e-06 
1002.1 2.16152e-06 
1002.54 2.15462e-06 
1002.98 2.14857e-06 
1003.42 2.14324e-06 
1003.86 2.13855e-06 
1004.3 2.13444e-06 
1004.74 2.13083e-06 
1005.18 2.12766e-06 
1005.62 2.12489e-06 
1006.05 2.12248e-06 
1006.49 2.12039e-06 
1006.93 2.11858e-06 
1007.37 2.11704e-06 
1007.81 2.11573e-06 
1008.25 2.11462e-06 
1008.69 2.11372e-06 
1009.13 2.11299e-06 
1009.57 2.11241e-06 
1010.01 2.11198e-06 
1010.45 2.11169e-06 
1010.89 2.11151e-06 
1011.33 2.11145e-06 
1011.77 2.11149e-06 
1012.21 2.11162e-06 
1012.65 2.11184e-06 
1013.09 2.11214e-06 
1013.53 2.11251e-06 
1013.96 2.11295e-06 
1014.4 2.11346e-06 
1014.84 2.11403e-06 
1015.28 2.11466e-06 
1015.72 2.11535e-06 
1016.16 2.11609e-06 
1016.6 2.11688e-06 
1017.04 2.11772e-06 
1017.48 2.1186e-06 
1017.92 2.11953e-06 
1018.36 2.1205e-06 
1018.8 2.12152e-06 
1019.24 2.12257e-06 
1019.68 2.12366e-06 
1020.12 2.12479e-06 
1020.56 2.12595e-06 
1021 2.12714e-06 
1021.44 2.12837e-06 
1021.88 2.12961e-06 
1022.31 2.13089e-06 
