#energy geo_1 
600 3.77767e-06 
600.439 3.78129e-06 
600.879 3.78491e-06 
601.318 3.78852e-06 
601.758 3.79212e-06 
602.197 3.79572e-06 
602.637 3.79932e-06 
603.076 3.8029e-06 
603.516 3.80649e-06 
603.955 3.81007e-06 
604.395 3.81365e-06 
604.834 3.81724e-06 
605.273 3.82082e-06 
605.713 3.82441e-06 
606.152 3.828e-06 
606.592 3.8316e-06 
607.031 3.83522e-06 
607.471 3.83885e-06 
607.91 3.8425e-06 
608.35 3.84618e-06 
608.789 3.84988e-06 
609.229 3.85362e-06 
609.668 3.8574e-06 
610.107 3.86123e-06 
610.547 3.86512e-06 
610.986 3.86908e-06 
611.426 3.87312e-06 
611.865 3.87726e-06 
612.305 3.88151e-06 
612.744 3.88589e-06 
613.184 3.89042e-06 
613.623 3.89514e-06 
614.062 3.90006e-06 
614.502 3.90522e-06 
614.941 3.91067e-06 
615.381 3.91645e-06 
615.82 3.92263e-06 
616.26 3.92927e-06 
616.699 3.93645e-06 
617.139 3.94429e-06 
617.578 3.95289e-06 
618.018 3.96243e-06 
618.457 3.97307e-06 
618.896 3.98504e-06 
619.336 3.99863e-06 
619.775 4.01417e-06 
620.215 4.03208e-06 
620.654 4.05288e-06 
621.094 4.07714e-06 
621.533 4.10557e-06 
621.973 4.13889e-06 
622.412 4.17775e-06 
622.852 4.22253e-06 
623.291 4.27288e-06 
623.73 4.32717e-06 
624.17 4.38172e-06 
624.609 4.43047e-06 
625.049 4.46578e-06 
625.488 4.48083e-06 
625.928 4.47278e-06 
626.367 4.44423e-06 
626.807 4.40187e-06 
627.246 4.35335e-06 
627.686 4.30482e-06 
628.125 4.2601e-06 
628.564 4.2209e-06 
629.004 4.18762e-06 
629.443 4.15992e-06 
629.883 4.13716e-06 
630.322 4.1186e-06 
630.762 4.10357e-06 
631.201 4.09146e-06 
631.641 4.08175e-06 
632.08 4.07404e-06 
632.52 4.06797e-06 
632.959 4.06326e-06 
633.398 4.05969e-06 
633.838 4.05706e-06 
634.277 4.05523e-06 
634.717 4.05406e-06 
635.156 4.05346e-06 
635.596 4.05333e-06 
636.035 4.05361e-06 
636.475 4.05424e-06 
636.914 4.05516e-06 
637.354 4.05633e-06 
637.793 4.05772e-06 
638.232 4.05929e-06 
638.672 4.06101e-06 
639.111 4.06286e-06 
639.551 4.06482e-06 
639.99 4.06686e-06 
640.43 4.06898e-06 
640.869 4.07115e-06 
641.309 4.07337e-06 
641.748 4.07561e-06 
642.188 4.07788e-06 
642.627 4.08014e-06 
643.066 4.08241e-06 
643.506 4.08466e-06 
643.945 4.08689e-06 
644.385 4.08908e-06 
644.824 4.09125e-06 
645.264 4.09336e-06 
645.703 4.09542e-06 
646.143 4.09742e-06 
646.582 4.09934e-06 
647.021 4.1012e-06 
647.461 4.10297e-06 
647.9 4.10466e-06 
648.34 4.10624e-06 
648.779 4.10774e-06 
649.219 4.10912e-06 
649.658 4.11039e-06 
650.098 4.11155e-06 
650.537 4.11258e-06 
650.977 4.11349e-06 
651.416 4.11427e-06 
651.855 4.11491e-06 
652.295 4.11541e-06 
652.734 4.11578e-06 
653.174 4.116e-06 
653.613 4.11608e-06 
654.053 4.11601e-06 
654.492 4.1158e-06 
654.932 4.11544e-06 
655.371 4.11494e-06 
655.811 4.11431e-06 
656.25 4.11354e-06 
656.689 4.11264e-06 
657.129 4.11163e-06 
657.568 4.11051e-06 
658.008 4.10929e-06 
658.447 4.10801e-06 
658.887 4.10666e-06 
659.326 4.10528e-06 
659.766 4.10389e-06 
660.205 4.10254e-06 
660.645 4.10127e-06 
661.084 4.10012e-06 
661.523 4.09915e-06 
661.963 4.09844e-06 
662.402 4.09807e-06 
662.842 4.09815e-06 
663.281 4.0988e-06 
663.721 4.10019e-06 
664.16 4.10249e-06 
664.6 4.10595e-06 
665.039 4.11086e-06 
665.479 4.11756e-06 
665.918 4.12653e-06 
666.357 4.13833e-06 
666.797 4.1537e-06 
667.236 4.17354e-06 
667.676 4.19904e-06 
668.115 4.23168e-06 
668.555 4.27338e-06 
668.994 4.32654e-06 
669.434 4.39425e-06 
669.873 4.48073e-06 
670.312 4.5923e-06 
670.752 4.74003e-06 
671.191 4.94585e-06 
671.631 5.25605e-06 
672.07 5.77183e-06 
672.51 6.72429e-06 
672.949 8.65751e-06 
673.389 1.25356e-05 
673.828 1.65558e-05 
674.268 1.39278e-05 
674.707 9.57936e-06 
675.146 7.07806e-06 
675.586 5.8326e-06 
676.025 5.17138e-06 
676.465 4.7875e-06 
676.904 4.54718e-06 
677.344 4.38759e-06 
677.783 4.27662e-06 
678.223 4.19665e-06 
678.662 4.13737e-06 
679.102 4.09244e-06 
679.541 4.05782e-06 
679.98 4.03079e-06 
680.42 4.00954e-06 
680.859 3.99275e-06 
681.299 3.97953e-06 
681.738 3.9692e-06 
682.178 3.96127e-06 
682.617 3.95542e-06 
683.057 3.95137e-06 
683.496 3.94896e-06 
683.936 3.94809e-06 
684.375 3.9487e-06 
684.814 3.9508e-06 
685.254 3.95444e-06 
685.693 3.95972e-06 
686.133 3.96679e-06 
686.572 3.97587e-06 
687.012 3.98727e-06 
687.451 4.00134e-06 
687.891 4.01858e-06 
688.33 4.03959e-06 
688.77 4.06512e-06 
689.209 4.09609e-06 
689.648 4.13359e-06 
690.088 4.17885e-06 
690.527 4.23318e-06 
690.967 4.29772e-06 
691.406 4.37299e-06 
691.846 4.45808e-06 
692.285 4.54952e-06 
692.725 4.64e-06 
693.164 4.71796e-06 
693.604 4.76941e-06 
694.043 4.78267e-06 
694.482 4.75379e-06 
694.922 4.68867e-06 
695.361 4.59987e-06 
695.801 4.5011e-06 
696.24 4.40302e-06 
696.68 4.31206e-06 
697.119 4.23108e-06 
697.559 4.16059e-06 
697.998 4.09988e-06 
698.438 4.04774e-06 
698.877 4.00282e-06 
699.316 3.9639e-06 
699.756 3.92989e-06 
700.195 3.89988e-06 
700.635 3.87308e-06 
701.074 3.84889e-06 
701.514 3.82681e-06 
701.953 3.80644e-06 
702.393 3.78744e-06 
702.832 3.76953e-06 
703.271 3.75251e-06 
703.711 3.7362e-06 
704.15 3.72047e-06 
704.59 3.70521e-06 
705.029 3.69032e-06 
705.469 3.67574e-06 
705.908 3.66145e-06 
706.348 3.64741e-06 
706.787 3.63363e-06 
707.227 3.62009e-06 
707.666 3.60683e-06 
708.105 3.59392e-06 
708.545 3.58141e-06 
708.984 3.56942e-06 
709.424 3.55804e-06 
709.863 3.54744e-06 
710.303 3.53784e-06 
710.742 3.52947e-06 
711.182 3.52268e-06 
711.621 3.51784e-06 
712.061 3.51548e-06 
712.5 3.5163e-06 
712.939 3.52115e-06 
713.379 3.53122e-06 
713.818 3.54805e-06 
714.258 3.57379e-06 
714.697 3.61147e-06 
715.137 3.66539e-06 
715.576 3.74195e-06 
716.016 3.85085e-06 
716.455 4.00749e-06 
716.895 4.2374e-06 
717.334 4.58514e-06 
717.773 5.13383e-06 
718.213 6.05045e-06 
718.652 7.70069e-06 
719.092 1.09427e-05 
719.531 1.76024e-05 
719.971 2.75044e-05 
720.41 2.71409e-05 
720.85 1.78722e-05 
721.289 1.11658e-05 
721.729 7.7636e-06 
722.168 6.02651e-06 
722.607 5.06046e-06 
723.047 4.47915e-06 
723.486 4.10733e-06 
723.926 3.85878e-06 
724.365 3.68771e-06 
724.805 3.56829e-06 
725.244 3.48516e-06 
725.684 3.42869e-06 
726.123 3.39242e-06 
726.562 3.37139e-06 
727.002 3.36101e-06 
727.441 3.35628e-06 
727.881 3.35168e-06 
728.32 3.342e-06 
728.76 3.3239e-06 
729.199 3.29712e-06 
729.639 3.26425e-06 
730.078 3.22923e-06 
730.518 3.19574e-06 
730.957 3.16635e-06 
731.396 3.14249e-06 
731.836 3.12469e-06 
732.275 3.11299e-06 
732.715 3.10707e-06 
733.154 3.10632e-06 
733.594 3.10978e-06 
734.033 3.11613e-06 
734.473 3.12376e-06 
734.912 3.13131e-06 
735.352 3.13825e-06 
735.791 3.14533e-06 
736.23 3.15431e-06 
736.67 3.1673e-06 
737.109 3.18606e-06 
737.549 3.21146e-06 
737.988 3.24308e-06 
738.428 3.27866e-06 
738.867 3.31372e-06 
739.307 3.34176e-06 
739.746 3.35567e-06 
740.186 3.3505e-06 
740.625 3.32573e-06 
741.064 3.2855e-06 
741.504 3.23645e-06 
741.943 3.18498e-06 
742.383 3.13568e-06 
742.822 3.0911e-06 
743.262 3.05216e-06 
743.701 3.01886e-06 
744.141 2.99068e-06 
744.58 2.96697e-06 
745.02 2.94705e-06 
745.459 2.93029e-06 
745.898 2.91617e-06 
746.338 2.90423e-06 
746.777 2.89411e-06 
747.217 2.8855e-06 
747.656 2.87816e-06 
748.096 2.87189e-06 
748.535 2.86653e-06 
748.975 2.86193e-06 
749.414 2.85799e-06 
749.854 2.85462e-06 
750.293 2.85174e-06 
750.732 2.84928e-06 
751.172 2.84719e-06 
751.611 2.84544e-06 
752.051 2.84396e-06 
752.49 2.84274e-06 
752.93 2.84175e-06 
753.369 2.84096e-06 
753.809 2.84035e-06 
754.248 2.83991e-06 
754.688 2.83961e-06 
755.127 2.83945e-06 
755.566 2.83941e-06 
756.006 2.83948e-06 
756.445 2.83966e-06 
756.885 2.83994e-06 
757.324 2.84031e-06 
757.764 2.84076e-06 
758.203 2.84129e-06 
758.643 2.84191e-06 
759.082 2.8426e-06 
759.521 2.84336e-06 
759.961 2.84419e-06 
760.4 2.8451e-06 
760.84 2.84608e-06 
761.279 2.84713e-06 
761.719 2.84827e-06 
762.158 2.84948e-06 
762.598 2.85078e-06 
763.037 2.85217e-06 
763.477 2.85367e-06 
763.916 2.85528e-06 
764.355 2.85701e-06 
764.795 2.85888e-06 
765.234 2.86092e-06 
765.674 2.86313e-06 
766.113 2.86556e-06 
766.553 2.86824e-06 
766.992 2.8712e-06 
767.432 2.8745e-06 
767.871 2.87822e-06 
768.311 2.88242e-06 
768.75 2.88721e-06 
769.189 2.89271e-06 
769.629 2.89907e-06 
770.068 2.90645e-06 
770.508 2.91507e-06 
770.947 2.92513e-06 
771.387 2.93683e-06 
771.826 2.95027e-06 
772.266 2.96536e-06 
772.705 2.98164e-06 
773.145 2.99803e-06 
773.584 3.0128e-06 
774.023 3.02374e-06 
774.463 3.02886e-06 
774.902 3.02727e-06 
775.342 3.01964e-06 
775.781 3.00784e-06 
776.221 2.99408e-06 
776.66 2.98019e-06 
777.1 2.96735e-06 
777.539 2.9561e-06 
777.979 2.94658e-06 
778.418 2.93873e-06 
778.857 2.93235e-06 
779.297 2.92724e-06 
779.736 2.92319e-06 
780.176 2.92001e-06 
780.615 2.91757e-06 
781.055 2.91573e-06 
781.494 2.91439e-06 
781.934 2.91347e-06 
782.373 2.9129e-06 
782.812 2.91262e-06 
783.252 2.91259e-06 
783.691 2.91278e-06 
784.131 2.91314e-06 
784.57 2.91366e-06 
785.01 2.91433e-06 
785.449 2.91511e-06 
785.889 2.91601e-06 
786.328 2.917e-06 
786.768 2.91808e-06 
787.207 2.91924e-06 
787.646 2.92048e-06 
788.086 2.9218e-06 
788.525 2.92319e-06 
788.965 2.92465e-06 
789.404 2.92618e-06 
789.844 2.92778e-06 
790.283 2.92946e-06 
790.723 2.93122e-06 
791.162 2.93306e-06 
791.602 2.93501e-06 
792.041 2.93705e-06 
792.48 2.9392e-06 
792.92 2.94149e-06 
793.359 2.94392e-06 
793.799 2.94653e-06 
794.238 2.94932e-06 
794.678 2.95234e-06 
795.117 2.95562e-06 
795.557 2.95921e-06 
795.996 2.96317e-06 
796.436 2.96756e-06 
796.875 2.97248e-06 
797.314 2.97802e-06 
797.754 2.98432e-06 
798.193 2.99154e-06 
798.633 2.99987e-06 
799.072 3.00953e-06 
799.512 3.02079e-06 
799.951 3.03393e-06 
800.391 3.04919e-06 
800.83 3.06671e-06 
801.27 3.08637e-06 
801.709 3.10755e-06 
802.148 3.12886e-06 
802.588 3.14802e-06 
803.027 3.16217e-06 
803.467 3.16874e-06 
803.906 3.1666e-06 
804.346 3.15664e-06 
804.785 3.14127e-06 
805.225 3.12337e-06 
805.664 3.10531e-06 
806.104 3.08861e-06 
806.543 3.07399e-06 
806.982 3.06162e-06 
807.422 3.05142e-06 
807.861 3.04313e-06 
808.301 3.03648e-06 
808.74 3.03122e-06 
809.18 3.02709e-06 
809.619 3.02392e-06 
810.059 3.02153e-06 
810.498 3.0198e-06 
810.938 3.0186e-06 
811.377 3.01787e-06 
811.816 3.01751e-06 
812.256 3.01747e-06 
812.695 3.01771e-06 
813.135 3.01818e-06 
813.574 3.01885e-06 
814.014 3.01969e-06 
814.453 3.02069e-06 
814.893 3.02182e-06 
815.332 3.02306e-06 
815.771 3.02441e-06 
816.211 3.02584e-06 
816.65 3.02736e-06 
817.09 3.02895e-06 
817.529 3.0306e-06 
817.969 3.03232e-06 
818.408 3.03408e-06 
818.848 3.0359e-06 
819.287 3.03775e-06 
819.727 3.03965e-06 
820.166 3.04159e-06 
820.605 3.04356e-06 
821.045 3.04556e-06 
821.484 3.04759e-06 
821.924 3.04965e-06 
822.363 3.05174e-06 
822.803 3.05385e-06 
823.242 3.05598e-06 
823.682 3.05814e-06 
824.121 3.06031e-06 
824.561 3.06251e-06 
825 3.06472e-06 
825.439 3.06695e-06 
825.879 3.0692e-06 
826.318 3.07146e-06 
826.758 3.07374e-06 
827.197 3.07603e-06 
827.637 3.07834e-06 
828.076 3.08066e-06 
828.516 3.08299e-06 
828.955 3.08534e-06 
829.395 3.0877e-06 
829.834 3.09007e-06 
830.273 3.09245e-06 
830.713 3.09484e-06 
831.152 3.09725e-06 
831.592 3.09966e-06 
832.031 3.10209e-06 
832.471 3.10452e-06 
832.91 3.10696e-06 
833.35 3.10942e-06 
833.789 3.11188e-06 
834.229 3.11435e-06 
834.668 3.11683e-06 
835.107 3.11931e-06 
835.547 3.1218e-06 
835.986 3.1243e-06 
836.426 3.12681e-06 
836.865 3.12933e-06 
837.305 3.13185e-06 
837.744 3.13438e-06 
838.184 3.13691e-06 
838.623 3.13945e-06 
839.062 3.142e-06 
839.502 3.14455e-06 
839.941 3.1471e-06 
840.381 3.14967e-06 
840.82 3.15223e-06 
841.26 3.1548e-06 
841.699 3.15738e-06 
842.139 3.15995e-06 
842.578 3.16253e-06 
843.018 3.16512e-06 
843.457 3.16771e-06 
843.896 3.1703e-06 
844.336 3.17289e-06 
844.775 3.17549e-06 
845.215 3.17809e-06 
845.654 3.18069e-06 
846.094 3.1833e-06 
846.533 3.18591e-06 
846.973 3.18852e-06 
847.412 3.19113e-06 
847.852 3.19375e-06 
848.291 3.19637e-06 
848.73 3.199e-06 
849.17 3.20162e-06 
849.609 3.20426e-06 
850.049 3.2069e-06 
850.488 3.20954e-06 
850.928 3.21219e-06 
851.367 3.21485e-06 
851.807 3.21752e-06 
852.246 3.22019e-06 
852.686 3.22288e-06 
853.125 3.22559e-06 
853.564 3.22831e-06 
854.004 3.23104e-06 
854.443 3.23381e-06 
854.883 3.23659e-06 
855.322 3.2394e-06 
855.762 3.24225e-06 
856.201 3.24513e-06 
856.641 3.24806e-06 
857.08 3.25103e-06 
857.52 3.25407e-06 
857.959 3.25717e-06 
858.398 3.26034e-06 
858.838 3.26361e-06 
859.277 3.26697e-06 
859.717 3.27045e-06 
860.156 3.27407e-06 
860.596 3.27784e-06 
861.035 3.2818e-06 
861.475 3.28597e-06 
861.914 3.29038e-06 
862.354 3.29509e-06 
862.793 3.30013e-06 
863.232 3.30558e-06 
863.672 3.3115e-06 
864.111 3.31798e-06 
864.551 3.32513e-06 
864.99 3.33309e-06 
865.43 3.34201e-06 
865.869 3.3521e-06 
866.309 3.3636e-06 
866.748 3.37682e-06 
867.188 3.3921e-06 
867.627 3.40989e-06 
868.066 3.43066e-06 
868.506 3.45492e-06 
868.945 3.48311e-06 
869.385 3.51544e-06 
869.824 3.55158e-06 
870.264 3.59024e-06 
870.703 3.62867e-06 
871.143 3.66254e-06 
871.582 3.68659e-06 
872.021 3.69638e-06 
872.461 3.69029e-06 
872.9 3.67035e-06 
873.34 3.64117e-06 
873.779 3.60795e-06 
874.219 3.57485e-06 
874.658 3.54444e-06 
875.098 3.51791e-06 
875.537 3.49551e-06 
875.977 3.47702e-06 
876.416 3.46199e-06 
876.855 3.4499e-06 
877.295 3.44029e-06 
877.734 3.43273e-06 
878.174 3.42688e-06 
878.613 3.42244e-06 
879.053 3.41917e-06 
879.492 3.41687e-06 
879.932 3.4154e-06 
880.371 3.41461e-06 
880.811 3.41441e-06 
881.25 3.4147e-06 
881.689 3.41542e-06 
882.129 3.41651e-06 
882.568 3.41792e-06 
883.008 3.41961e-06 
883.447 3.42154e-06 
883.887 3.42369e-06 
884.326 3.42603e-06 
884.766 3.42854e-06 
885.205 3.43121e-06 
885.645 3.43401e-06 
886.084 3.43694e-06 
886.523 3.43999e-06 
886.963 3.44314e-06 
887.402 3.44639e-06 
887.842 3.44973e-06 
888.281 3.45315e-06 
888.721 3.45664e-06 
889.16 3.46021e-06 
889.6 3.46385e-06 
890.039 3.46755e-06 
890.479 3.47132e-06 
890.918 3.47514e-06 
891.357 3.47902e-06 
891.797 3.48295e-06 
892.236 3.48693e-06 
892.676 3.49096e-06 
893.115 3.49504e-06 
893.555 3.49916e-06 
893.994 3.50332e-06 
894.434 3.50753e-06 
894.873 3.51177e-06 
895.312 3.51606e-06 
895.752 3.52039e-06 
896.191 3.52475e-06 
896.631 3.52915e-06 
897.07 3.53358e-06 
897.51 3.53805e-06 
897.949 3.54255e-06 
898.389 3.54707e-06 
898.828 3.55163e-06 
899.268 3.55623e-06 
899.707 3.56084e-06 
900.146 3.56549e-06 
900.586 3.57015e-06 
901.025 3.57484e-06 
901.465 3.57955e-06 
901.904 3.58429e-06 
902.344 3.58904e-06 
902.783 3.5938e-06 
903.223 3.59859e-06 
903.662 3.60338e-06 
904.102 3.60818e-06 
904.541 3.61299e-06 
904.98 3.61781e-06 
905.42 3.62263e-06 
905.859 3.62744e-06 
906.299 3.63225e-06 
906.738 3.63705e-06 
907.178 3.64184e-06 
907.617 3.64661e-06 
908.057 3.65137e-06 
908.496 3.65609e-06 
908.936 3.66079e-06 
909.375 3.66545e-06 
909.814 3.67007e-06 
910.254 3.67464e-06 
910.693 3.67916e-06 
911.133 3.68362e-06 
911.572 3.68801e-06 
912.012 3.69232e-06 
912.451 3.69655e-06 
912.891 3.70069e-06 
913.33 3.70473e-06 
913.77 3.70866e-06 
914.209 3.71246e-06 
914.648 3.71614e-06 
915.088 3.71967e-06 
915.527 3.72305e-06 
915.967 3.72626e-06 
916.406 3.7293e-06 
916.846 3.73213e-06 
917.285 3.73476e-06 
917.725 3.73718e-06 
918.164 3.73935e-06 
918.604 3.74127e-06 
919.043 3.74292e-06 
919.482 3.74428e-06 
919.922 3.74533e-06 
920.361 3.74607e-06 
920.801 3.74646e-06 
921.24 3.74648e-06 
921.68 3.74611e-06 
922.119 3.74535e-06 
922.559 3.74416e-06 
922.998 3.74252e-06 
923.438 3.7404e-06 
923.877 3.73778e-06 
924.316 3.73465e-06 
924.756 3.73098e-06 
925.195 3.72674e-06 
925.635 3.72189e-06 
926.074 3.71643e-06 
926.514 3.71034e-06 
926.953 3.70357e-06 
927.393 3.69611e-06 
927.832 3.68793e-06 
928.271 3.679e-06 
928.711 3.66932e-06 
929.15 3.65886e-06 
929.59 3.64758e-06 
930.029 3.63546e-06 
930.469 3.6225e-06 
930.908 3.60868e-06 
931.348 3.59399e-06 
931.787 3.5784e-06 
932.227 3.56191e-06 
932.666 3.54451e-06 
933.105 3.52622e-06 
933.545 3.50703e-06 
933.984 3.48696e-06 
934.424 3.46599e-06 
934.863 3.44419e-06 
935.303 3.42158e-06 
935.742 3.39822e-06 
936.182 3.37416e-06 
936.621 3.34946e-06 
937.061 3.32423e-06 
937.5 3.2986e-06 
937.939 3.27273e-06 
938.379 3.24679e-06 
938.818 3.22099e-06 
939.258 3.19564e-06 
939.697 3.1711e-06 
940.137 3.14783e-06 
940.576 3.12638e-06 
941.016 3.10745e-06 
941.455 3.092e-06 
941.895 3.08126e-06 
942.334 3.07684e-06 
942.773 3.0809e-06 
943.213 3.09642e-06 
943.652 3.1276e-06 
944.092 3.18049e-06 
944.531 3.26402e-06 
944.971 3.3919e-06 
945.41 3.58593e-06 
945.85 3.88265e-06 
946.289 4.34655e-06 
946.729 5.09958e-06 
947.168 6.39123e-06 
947.607 8.77736e-06 
948.047 1.35579e-05 
948.486 2.30557e-05 
948.926 3.38808e-05 
949.365 3.1697e-05 
949.805 2.05132e-05 
950.244 1.21681e-05 
950.684 7.96721e-06 
951.123 5.81937e-06 
951.562 4.62786e-06 
952.002 3.92248e-06 
952.441 3.49184e-06 
952.881 3.2349e-06 
953.32 3.10268e-06 
953.76 3.07463e-06 
954.199 3.14955e-06 
954.639 3.34436e-06 
955.078 3.69961e-06 
955.518 4.29511e-06 
955.957 5.28653e-06 
956.396 6.99346e-06 
956.836 1.01229e-05 
957.275 1.6331e-05 
957.715 2.8895e-05 
958.154 4.57618e-05 
958.594 4.6207e-05 
959.033 3.0667e-05 
959.473 1.72659e-05 
959.912 1.03692e-05 
960.352 6.86762e-06 
960.791 4.9271e-06 
961.23 3.75676e-06 
961.67 3.00096e-06 
962.109 2.48578e-06 
962.549 2.11917e-06 
962.988 1.849e-06 
963.428 1.64411e-06 
963.867 1.48496e-06 
964.307 1.3588e-06 
964.746 1.25706e-06 
965.186 1.17375e-06 
965.625 1.10466e-06 
966.064 1.0467e-06 
966.504 9.9757e-07 
966.943 9.55562e-07 
967.383 9.1935e-07 
967.822 8.8791e-07 
968.262 8.60436e-07 
968.701 8.36287e-07 
969.141 8.14946e-07 
969.58 7.95996e-07 
970.02 7.79095e-07 
970.459 7.6396e-07 
970.898 7.50357e-07 
971.338 7.38088e-07 
971.777 7.2699e-07 
972.217 7.1692e-07 
972.656 7.0776e-07 
973.096 6.99408e-07 
973.535 6.91776e-07 
973.975 6.84785e-07 
974.414 6.78372e-07 
974.854 6.72476e-07 
975.293 6.6705e-07 
975.732 6.62047e-07 
976.172 6.57429e-07 
976.611 6.5316e-07 
977.051 6.4921e-07 
977.49 6.45552e-07 
977.93 6.4216e-07 
978.369 6.39014e-07 
978.809 6.36094e-07 
979.248 6.3338e-07 
979.688 6.30859e-07 
980.127 6.28514e-07 
980.566 6.26334e-07 
981.006 6.24307e-07 
981.445 6.2242e-07 
981.885 6.20665e-07 
982.324 6.19033e-07 
982.764 6.17515e-07 
983.203 6.16104e-07 
983.643 6.14793e-07 
984.082 6.13576e-07 
984.521 6.12446e-07 
984.961 6.11399e-07 
985.4 6.10429e-07 
985.84 6.09532e-07 
986.279 6.08703e-07 
986.719 6.07939e-07 
987.158 6.07236e-07 
987.598 6.0659e-07 
988.037 6.05999e-07 
988.477 6.05459e-07 
988.916 6.04967e-07 
989.355 6.04522e-07 
989.795 6.0412e-07 
990.234 6.0376e-07 
990.674 6.03439e-07 
991.113 6.03155e-07 
991.553 6.02907e-07 
991.992 6.02692e-07 
992.432 6.0251e-07 
992.871 6.02358e-07 
993.311 6.02235e-07 
993.75 6.0214e-07 
994.189 6.02072e-07 
994.629 6.02029e-07 
995.068 6.0201e-07 
995.508 6.02014e-07 
995.947 6.02041e-07 
996.387 6.02088e-07 
996.826 6.02156e-07 
997.266 6.02242e-07 
997.705 6.02348e-07 
998.145 6.02471e-07 
998.584 6.02611e-07 
999.023 6.02767e-07 
999.463 6.0294e-07 
999.902 6.03127e-07 
1000.34 6.03328e-07 
1000.78 6.03543e-07 
1001.22 6.03772e-07 
1001.66 6.04013e-07 
1002.1 6.04267e-07 
1002.54 6.04532e-07 
1002.98 6.04809e-07 
1003.42 6.05096e-07 
1003.86 6.05394e-07 
1004.3 6.05702e-07 
1004.74 6.0602e-07 
1005.18 6.06347e-07 
1005.62 6.06683e-07 
1006.05 6.07028e-07 
1006.49 6.07382e-07 
1006.93 6.07743e-07 
1007.37 6.08112e-07 
1007.81 6.08488e-07 
1008.25 6.08872e-07 
1008.69 6.09263e-07 
1009.13 6.0966e-07 
1009.57 6.10064e-07 
1010.01 6.10474e-07 
1010.45 6.10891e-07 
1010.89 6.11313e-07 
1011.33 6.1174e-07 
1011.77 6.12173e-07 
1012.21 6.12611e-07 
1012.65 6.13055e-07 
1013.09 6.13503e-07 
1013.53 6.13956e-07 
1013.96 6.14413e-07 
1014.4 6.14875e-07 
1014.84 6.15341e-07 
1015.28 6.15811e-07 
1015.72 6.16285e-07 
1016.16 6.16764e-07 
1016.6 6.17245e-07 
1017.04 6.1773e-07 
1017.48 6.18219e-07 
1017.92 6.18711e-07 
1018.36 6.19206e-07 
1018.8 6.19704e-07 
1019.24 6.20205e-07 
1019.68 6.20709e-07 
1020.12 6.21216e-07 
1020.56 6.21726e-07 
1021 6.22238e-07 
1021.44 6.22752e-07 
1021.88 6.2327e-07 
1022.31 6.23789e-07 
1022.75 6.24311e-07 
