#energy geo_1 
600 3.12166e-06 
600.439 3.12455e-06 
600.879 3.12748e-06 
601.318 3.13042e-06 
601.758 3.13338e-06 
602.197 3.13635e-06 
602.637 3.13932e-06 
603.076 3.14228e-06 
603.516 3.14522e-06 
603.955 3.14813e-06 
604.395 3.151e-06 
604.834 3.1538e-06 
605.273 3.15654e-06 
605.713 3.15921e-06 
606.152 3.1618e-06 
606.592 3.16432e-06 
607.031 3.16679e-06 
607.471 3.16922e-06 
607.91 3.17164e-06 
608.35 3.17407e-06 
608.789 3.17653e-06 
609.229 3.17905e-06 
609.668 3.18166e-06 
610.107 3.18438e-06 
610.547 3.18724e-06 
610.986 3.19026e-06 
611.426 3.19345e-06 
611.865 3.19682e-06 
612.305 3.20037e-06 
612.744 3.2041e-06 
613.184 3.20801e-06 
613.623 3.21207e-06 
614.062 3.21629e-06 
614.502 3.22066e-06 
614.941 3.22519e-06 
615.381 3.22986e-06 
615.82 3.23468e-06 
616.26 3.23966e-06 
616.699 3.24478e-06 
617.139 3.25e-06 
617.578 3.25528e-06 
618.018 3.26055e-06 
618.457 3.26569e-06 
618.896 3.27058e-06 
619.336 3.27506e-06 
619.775 3.27901e-06 
620.215 3.28232e-06 
620.654 3.28495e-06 
621.094 3.28696e-06 
621.533 3.28846e-06 
621.973 3.28964e-06 
622.412 3.29073e-06 
622.852 3.29194e-06 
623.291 3.29345e-06 
623.73 3.29539e-06 
624.17 3.29783e-06 
624.609 3.30083e-06 
625.049 3.30437e-06 
625.488 3.30847e-06 
625.928 3.31309e-06 
626.367 3.31821e-06 
626.807 3.32381e-06 
627.246 3.32989e-06 
627.686 3.33643e-06 
628.125 3.34346e-06 
628.564 3.35104e-06 
629.004 3.35926e-06 
629.443 3.36826e-06 
629.883 3.37825e-06 
630.322 3.3895e-06 
630.762 3.40236e-06 
631.201 3.41726e-06 
631.641 3.43463e-06 
632.08 3.45483e-06 
632.52 3.47803e-06 
632.959 3.50394e-06 
633.398 3.53145e-06 
633.838 3.55831e-06 
634.277 3.58113e-06 
634.717 3.59609e-06 
635.156 3.60039e-06 
635.596 3.59369e-06 
636.035 3.57832e-06 
636.475 3.55806e-06 
636.914 3.53662e-06 
637.354 3.51668e-06 
637.793 3.49972e-06 
638.232 3.48632e-06 
638.672 3.47651e-06 
639.111 3.47003e-06 
639.551 3.46654e-06 
639.99 3.46565e-06 
640.43 3.46698e-06 
640.869 3.47014e-06 
641.309 3.47474e-06 
641.748 3.48032e-06 
642.188 3.48635e-06 
642.627 3.49224e-06 
643.066 3.49738e-06 
643.506 3.50113e-06 
643.945 3.50296e-06 
644.385 3.50249e-06 
644.824 3.49962e-06 
645.264 3.49457e-06 
645.703 3.48783e-06 
646.143 3.48006e-06 
646.582 3.472e-06 
647.021 3.46435e-06 
647.461 3.45766e-06 
647.9 3.45235e-06 
648.34 3.44864e-06 
648.779 3.44665e-06 
649.219 3.44644e-06 
649.658 3.44802e-06 
650.098 3.45142e-06 
650.537 3.45666e-06 
650.977 3.46382e-06 
651.416 3.47304e-06 
651.855 3.48454e-06 
652.295 3.49864e-06 
652.734 3.51574e-06 
653.174 3.5364e-06 
653.613 3.56128e-06 
654.053 3.59122e-06 
654.492 3.6272e-06 
654.932 3.6704e-06 
655.371 3.72209e-06 
655.811 3.78347e-06 
656.25 3.85534e-06 
656.689 3.93745e-06 
657.129 4.02748e-06 
657.568 4.11981e-06 
658.008 4.20467e-06 
658.447 4.26891e-06 
658.887 4.2997e-06 
659.326 4.29002e-06 
659.766 4.2423e-06 
660.205 4.16709e-06 
660.645 4.07796e-06 
661.084 3.98663e-06 
661.523 3.9008e-06 
661.963 3.82433e-06 
662.402 3.75837e-06 
662.842 3.70257e-06 
663.281 3.65587e-06 
663.721 3.617e-06 
664.16 3.58473e-06 
664.6 3.55791e-06 
665.039 3.5356e-06 
665.479 3.51701e-06 
665.918 3.50148e-06 
666.357 3.48849e-06 
666.797 3.4776e-06 
667.236 3.46843e-06 
667.676 3.46068e-06 
668.115 3.4541e-06 
668.555 3.44848e-06 
668.994 3.44365e-06 
669.434 3.43947e-06 
669.873 3.43581e-06 
670.312 3.43254e-06 
670.752 3.42956e-06 
671.191 3.42682e-06 
671.631 3.42425e-06 
672.07 3.42183e-06 
672.51 3.41956e-06 
672.949 3.41742e-06 
673.389 3.41542e-06 
673.828 3.41361e-06 
674.268 3.41204e-06 
674.707 3.41077e-06 
675.146 3.40986e-06 
675.586 3.40936e-06 
676.025 3.40936e-06 
676.465 3.40993e-06 
676.904 3.41114e-06 
677.344 3.41303e-06 
677.783 3.41562e-06 
678.223 3.41887e-06 
678.662 3.42269e-06 
679.102 3.42701e-06 
679.541 3.43173e-06 
679.98 3.43677e-06 
680.42 3.44204e-06 
680.859 3.44748e-06 
681.299 3.45304e-06 
681.738 3.45868e-06 
682.178 3.46436e-06 
682.617 3.4701e-06 
683.057 3.47588e-06 
683.496 3.48163e-06 
683.936 3.48722e-06 
684.375 3.49244e-06 
684.814 3.49703e-06 
685.254 3.50069e-06 
685.693 3.5031e-06 
686.133 3.50398e-06 
686.572 3.50319e-06 
687.012 3.50082e-06 
687.451 3.49713e-06 
687.891 3.49251e-06 
688.33 3.48745e-06 
688.77 3.48245e-06 
689.209 3.47804e-06 
689.648 3.47468e-06 
690.088 3.47278e-06 
690.527 3.47267e-06 
690.967 3.47462e-06 
691.406 3.47893e-06 
691.846 3.48589e-06 
692.285 3.49578e-06 
692.725 3.50877e-06 
693.164 3.52495e-06 
693.604 3.54429e-06 
694.043 3.56658e-06 
694.482 3.59133e-06 
694.922 3.61766e-06 
695.361 3.64432e-06 
695.801 3.67009e-06 
696.24 3.6945e-06 
696.68 3.71824e-06 
697.119 3.74312e-06 
697.559 3.77137e-06 
697.998 3.80482e-06 
698.438 3.84437e-06 
698.877 3.88949e-06 
699.316 3.93776e-06 
699.756 3.98452e-06 
700.195 4.02297e-06 
700.635 4.04534e-06 
701.074 4.04539e-06 
701.514 4.02124e-06 
701.953 3.97631e-06 
702.393 3.91792e-06 
702.832 3.85383e-06 
703.271 3.78999e-06 
703.711 3.72983e-06 
704.15 3.67485e-06 
704.59 3.6257e-06 
705.029 3.58245e-06 
705.469 3.54512e-06 
705.908 3.51449e-06 
706.348 3.49195e-06 
706.787 3.47836e-06 
707.227 3.47354e-06 
707.666 3.47582e-06 
708.105 3.4832e-06 
708.545 3.49417e-06 
708.984 3.50788e-06 
709.424 3.52418e-06 
709.863 3.54343e-06 
710.303 3.56626e-06 
710.742 3.59363e-06 
711.182 3.62672e-06 
711.621 3.66733e-06 
712.061 3.71758e-06 
712.5 3.77966e-06 
712.939 3.85542e-06 
713.379 3.94378e-06 
713.818 4.04053e-06 
714.258 4.137e-06 
714.697 4.22113e-06 
715.137 4.27585e-06 
715.576 4.27989e-06 
716.016 4.21839e-06 
716.455 4.09665e-06 
716.895 3.94183e-06 
717.334 3.78777e-06 
717.773 3.65575e-06 
718.213 3.55429e-06 
718.652 3.48073e-06 
719.092 3.42912e-06 
719.531 3.39451e-06 
719.971 3.37252e-06 
720.41 3.35979e-06 
720.85 3.35343e-06 
721.289 3.35122e-06 
721.729 3.35172e-06 
722.168 3.35436e-06 
722.607 3.35894e-06 
723.047 3.36552e-06 
723.486 3.37438e-06 
723.926 3.38644e-06 
724.365 3.40398e-06 
724.805 3.42964e-06 
725.244 3.4659e-06 
725.684 3.51566e-06 
726.123 3.58387e-06 
726.562 3.67988e-06 
727.002 3.82027e-06 
727.441 4.03472e-06 
727.881 4.3794e-06 
728.32 4.9713e-06 
728.76 6.07692e-06 
729.199 8.32101e-06 
729.639 1.26374e-05 
730.078 1.6075e-05 
730.518 1.2878e-05 
730.957 8.6486e-06 
731.396 6.22422e-06 
731.836 5.01436e-06 
732.275 4.37012e-06 
732.715 3.9958e-06 
733.154 3.7623e-06 
733.594 3.60883e-06 
734.033 3.50437e-06 
734.473 3.43182e-06 
734.912 3.38105e-06 
735.352 3.34572e-06 
735.791 3.32169e-06 
736.23 3.30616e-06 
736.67 3.29726e-06 
737.109 3.29367e-06 
737.549 3.29455e-06 
737.988 3.29935e-06 
738.428 3.30782e-06 
738.867 3.31978e-06 
739.307 3.33504e-06 
739.746 3.35319e-06 
740.186 3.37356e-06 
740.625 3.39511e-06 
741.064 3.41627e-06 
741.504 3.43506e-06 
741.943 3.44936e-06 
742.383 3.45711e-06 
742.822 3.45664e-06 
743.262 3.44712e-06 
743.701 3.42882e-06 
744.141 3.40365e-06 
744.58 3.37426e-06 
745.02 3.3428e-06 
745.459 3.31061e-06 
745.898 3.27811e-06 
746.338 3.246e-06 
746.777 3.21506e-06 
747.217 3.18614e-06 
747.656 3.16132e-06 
748.096 3.14433e-06 
748.535 3.13846e-06 
748.975 3.14525e-06 
749.414 3.16324e-06 
749.854 3.18938e-06 
750.293 3.22098e-06 
750.732 3.25652e-06 
751.172 3.29571e-06 
751.611 3.33931e-06 
752.051 3.38864e-06 
752.49 3.4455e-06 
752.93 3.51211e-06 
753.369 3.59164e-06 
753.809 3.68825e-06 
754.248 3.80608e-06 
754.688 3.94956e-06 
755.127 4.11878e-06 
755.566 4.30811e-06 
756.006 4.50393e-06 
756.445 4.68565e-06 
756.885 4.8245e-06 
757.324 4.88163e-06 
757.764 4.82168e-06 
758.203 4.64001e-06 
758.643 4.37564e-06 
759.082 4.09348e-06 
759.521 3.8436e-06 
759.961 3.65023e-06 
760.4 3.51353e-06 
760.84 3.42102e-06 
761.279 3.35994e-06 
761.719 3.31871e-06 
762.158 3.28837e-06 
762.598 3.26302e-06 
763.037 3.23969e-06 
763.477 3.21787e-06 
763.916 3.19863e-06 
764.355 3.18341e-06 
764.795 3.17333e-06 
765.234 3.16929e-06 
765.674 3.17257e-06 
766.113 3.18672e-06 
766.553 3.2167e-06 
766.992 3.26744e-06 
767.432 3.34428e-06 
767.871 3.45535e-06 
768.311 3.61601e-06 
768.75 3.85376e-06 
769.189 4.2173e-06 
769.629 4.79658e-06 
770.068 5.77276e-06 
770.508 7.54718e-06 
770.947 1.10653e-05 
771.387 1.81877e-05 
771.826 2.7259e-05 
772.266 2.50435e-05 
772.705 1.62596e-05 
773.145 1.01512e-05 
773.584 7.06712e-06 
774.023 5.47756e-06 
774.463 4.58269e-06 
774.902 4.03672e-06 
775.342 3.68143e-06 
775.781 3.4382e-06 
776.221 3.26481e-06 
776.66 3.13709e-06 
777.1 3.04045e-06 
777.539 2.96568e-06 
777.979 2.90673e-06 
778.418 2.85951e-06 
778.857 2.82116e-06 
779.297 2.78966e-06 
779.736 2.76351e-06 
780.176 2.74162e-06 
780.615 2.72315e-06 
781.055 2.70745e-06 
781.494 2.69405e-06 
781.934 2.68253e-06 
782.373 2.67259e-06 
782.812 2.66398e-06 
783.252 2.6565e-06 
783.691 2.64997e-06 
784.131 2.64427e-06 
784.57 2.63928e-06 
785.01 2.63491e-06 
785.449 2.63109e-06 
785.889 2.62774e-06 
786.328 2.62483e-06 
786.768 2.6223e-06 
787.207 2.62012e-06 
787.646 2.61827e-06 
788.086 2.61671e-06 
788.525 2.61544e-06 
788.965 2.61442e-06 
789.404 2.61365e-06 
789.844 2.6131e-06 
790.283 2.61278e-06 
790.723 2.61265e-06 
791.162 2.61272e-06 
791.602 2.61296e-06 
792.041 2.61337e-06 
792.48 2.61394e-06 
792.92 2.61464e-06 
793.359 2.61547e-06 
793.799 2.61643e-06 
794.238 2.61749e-06 
794.678 2.61864e-06 
795.117 2.61986e-06 
795.557 2.62115e-06 
795.996 2.62247e-06 
796.436 2.6238e-06 
796.875 2.62512e-06 
797.314 2.62641e-06 
797.754 2.62763e-06 
798.193 2.62877e-06 
798.633 2.62981e-06 
799.072 2.63076e-06 
799.512 2.6316e-06 
799.951 2.63236e-06 
800.391 2.63306e-06 
800.83 2.63371e-06 
801.27 2.63436e-06 
801.709 2.63504e-06 
802.148 2.63578e-06 
802.588 2.63663e-06 
803.027 2.6376e-06 
803.467 2.63876e-06 
803.906 2.64011e-06 
804.346 2.6417e-06 
804.785 2.64354e-06 
805.225 2.64565e-06 
805.664 2.64802e-06 
806.104 2.65066e-06 
806.543 2.65356e-06 
806.982 2.65672e-06 
807.422 2.66014e-06 
807.861 2.66381e-06 
808.301 2.66774e-06 
808.74 2.67192e-06 
809.18 2.67634e-06 
809.619 2.68098e-06 
810.059 2.68579e-06 
810.498 2.69069e-06 
810.938 2.69556e-06 
811.377 2.70025e-06 
811.816 2.70457e-06 
812.256 2.70832e-06 
812.695 2.7113e-06 
813.135 2.71335e-06 
813.574 2.7144e-06 
814.014 2.71446e-06 
814.453 2.71369e-06 
814.893 2.71231e-06 
815.332 2.71059e-06 
815.771 2.70883e-06 
816.211 2.70728e-06 
816.65 2.70612e-06 
817.09 2.70548e-06 
817.529 2.70545e-06 
817.969 2.70605e-06 
818.408 2.70731e-06 
818.848 2.70924e-06 
819.287 2.71184e-06 
819.727 2.71514e-06 
820.166 2.71919e-06 
820.605 2.72404e-06 
821.045 2.72981e-06 
821.484 2.73662e-06 
821.924 2.74466e-06 
822.363 2.75415e-06 
822.803 2.76537e-06 
823.242 2.77867e-06 
823.682 2.79445e-06 
824.121 2.81317e-06 
824.561 2.83529e-06 
825 2.86123e-06 
825.439 2.89113e-06 
825.879 2.92458e-06 
826.318 2.96022e-06 
826.758 2.99523e-06 
827.197 3.02534e-06 
827.637 3.04553e-06 
828.076 3.05181e-06 
828.516 3.04304e-06 
828.955 3.02156e-06 
829.395 2.99194e-06 
829.834 2.95905e-06 
830.273 2.92665e-06 
830.713 2.897e-06 
831.152 2.87108e-06 
831.592 2.84906e-06 
832.031 2.83068e-06 
832.471 2.81549e-06 
832.91 2.80303e-06 
833.35 2.79285e-06 
833.789 2.78457e-06 
834.229 2.77785e-06 
834.668 2.77243e-06 
835.107 2.76808e-06 
835.547 2.76463e-06 
835.986 2.76193e-06 
836.426 2.75987e-06 
836.865 2.75834e-06 
837.305 2.75726e-06 
837.744 2.75657e-06 
838.184 2.75622e-06 
838.623 2.75615e-06 
839.062 2.75634e-06 
839.502 2.75674e-06 
839.941 2.75734e-06 
840.381 2.7581e-06 
840.82 2.75902e-06 
841.26 2.76006e-06 
841.699 2.76122e-06 
842.139 2.76249e-06 
842.578 2.76384e-06 
843.018 2.76528e-06 
843.457 2.7668e-06 
843.896 2.76838e-06 
844.336 2.77002e-06 
844.775 2.77171e-06 
845.215 2.77345e-06 
845.654 2.77524e-06 
846.094 2.77706e-06 
846.533 2.77892e-06 
846.973 2.78081e-06 
847.412 2.78272e-06 
847.852 2.78466e-06 
848.291 2.78662e-06 
848.73 2.7886e-06 
849.17 2.79059e-06 
849.609 2.79259e-06 
850.049 2.79461e-06 
850.488 2.79663e-06 
850.928 2.79867e-06 
851.367 2.8007e-06 
851.807 2.80275e-06 
852.246 2.80479e-06 
852.686 2.80684e-06 
853.125 2.80889e-06 
853.564 2.81094e-06 
854.004 2.81299e-06 
854.443 2.81504e-06 
854.883 2.81709e-06 
855.322 2.81915e-06 
855.762 2.8212e-06 
856.201 2.82325e-06 
856.641 2.8253e-06 
857.08 2.82735e-06 
857.52 2.8294e-06 
857.959 2.83145e-06 
858.398 2.83351e-06 
858.838 2.83557e-06 
859.277 2.83763e-06 
859.717 2.83969e-06 
860.156 2.84175e-06 
860.596 2.84382e-06 
861.035 2.8459e-06 
861.475 2.84797e-06 
861.914 2.85006e-06 
862.354 2.85214e-06 
862.793 2.85424e-06 
863.232 2.85634e-06 
863.672 2.85844e-06 
864.111 2.86055e-06 
864.551 2.86266e-06 
864.99 2.86479e-06 
865.43 2.86692e-06 
865.869 2.86905e-06 
866.309 2.87119e-06 
866.748 2.87334e-06 
867.188 2.8755e-06 
867.627 2.87767e-06 
868.066 2.87984e-06 
868.506 2.88202e-06 
868.945 2.88422e-06 
869.385 2.88642e-06 
869.824 2.88863e-06 
870.264 2.89086e-06 
870.703 2.8931e-06 
871.143 2.89534e-06 
871.582 2.8976e-06 
872.021 2.89988e-06 
872.461 2.90216e-06 
872.9 2.90447e-06 
873.34 2.90679e-06 
873.779 2.90912e-06 
874.219 2.91147e-06 
874.658 2.91383e-06 
875.098 2.91621e-06 
875.537 2.91861e-06 
875.977 2.92102e-06 
876.416 2.92345e-06 
876.855 2.92589e-06 
877.295 2.92834e-06 
877.734 2.93082e-06 
878.174 2.93331e-06 
878.613 2.93581e-06 
879.053 2.93833e-06 
879.492 2.94087e-06 
879.932 2.94342e-06 
880.371 2.94599e-06 
880.811 2.94858e-06 
881.25 2.95119e-06 
881.689 2.95381e-06 
882.129 2.95644e-06 
882.568 2.95909e-06 
883.008 2.96174e-06 
883.447 2.96441e-06 
883.887 2.96708e-06 
884.326 2.96976e-06 
884.766 2.97244e-06 
885.205 2.97513e-06 
885.645 2.97781e-06 
886.084 2.98049e-06 
886.523 2.98318e-06 
886.963 2.98585e-06 
887.402 2.98853e-06 
887.842 2.99119e-06 
888.281 2.99385e-06 
888.721 2.9965e-06 
889.16 2.99913e-06 
889.6 3.00174e-06 
890.039 3.00433e-06 
890.479 3.00689e-06 
890.918 3.00942e-06 
891.357 3.01191e-06 
891.797 3.01438e-06 
892.236 3.01681e-06 
892.676 3.0192e-06 
893.115 3.02155e-06 
893.555 3.02387e-06 
893.994 3.02619e-06 
894.434 3.0285e-06 
894.873 3.03082e-06 
895.312 3.03313e-06 
895.752 3.03544e-06 
896.191 3.03772e-06 
896.631 3.03997e-06 
897.07 3.04218e-06 
897.51 3.04433e-06 
897.949 3.04643e-06 
898.389 3.04847e-06 
898.828 3.05043e-06 
899.268 3.05232e-06 
899.707 3.05414e-06 
900.146 3.05587e-06 
900.586 3.05752e-06 
901.025 3.05909e-06 
901.465 3.06058e-06 
901.904 3.06199e-06 
902.344 3.06338e-06 
902.783 3.06475e-06 
903.223 3.06611e-06 
903.662 3.06745e-06 
904.102 3.06876e-06 
904.541 3.07006e-06 
904.98 3.07131e-06 
905.42 3.07249e-06 
905.859 3.07361e-06 
906.299 3.07468e-06 
906.738 3.0757e-06 
907.178 3.07666e-06 
907.617 3.07756e-06 
908.057 3.0784e-06 
908.496 3.07919e-06 
908.936 3.07995e-06 
909.375 3.08068e-06 
909.814 3.08134e-06 
910.254 3.08194e-06 
910.693 3.08251e-06 
911.133 3.08306e-06 
911.572 3.08358e-06 
912.012 3.08403e-06 
912.451 3.08441e-06 
912.891 3.08473e-06 
913.33 3.08498e-06 
913.77 3.08515e-06 
914.209 3.08521e-06 
914.648 3.08518e-06 
915.088 3.08505e-06 
915.527 3.08483e-06 
915.967 3.08451e-06 
916.406 3.08412e-06 
916.846 3.08366e-06 
917.285 3.08314e-06 
917.725 3.08254e-06 
918.164 3.08186e-06 
918.604 3.08113e-06 
919.043 3.08036e-06 
919.482 3.07957e-06 
919.922 3.07876e-06 
920.361 3.07787e-06 
920.801 3.07692e-06 
921.24 3.07591e-06 
921.68 3.07489e-06 
922.119 3.07384e-06 
922.559 3.07272e-06 
922.998 3.07151e-06 
923.438 3.07023e-06 
923.877 3.06891e-06 
924.316 3.0676e-06 
924.756 3.0663e-06 
925.195 3.06496e-06 
925.635 3.06354e-06 
926.074 3.06206e-06 
926.514 3.06054e-06 
926.953 3.05902e-06 
927.393 3.05747e-06 
927.832 3.05586e-06 
928.271 3.05413e-06 
928.711 3.05229e-06 
929.15 3.05037e-06 
929.59 3.04842e-06 
930.029 3.04644e-06 
930.469 3.04438e-06 
930.908 3.04218e-06 
931.348 3.03983e-06 
931.787 3.03734e-06 
932.227 3.03478e-06 
932.666 3.03216e-06 
933.105 3.02947e-06 
933.545 3.02665e-06 
933.984 3.02366e-06 
934.424 3.02052e-06 
934.863 3.01728e-06 
935.303 3.01395e-06 
935.742 3.01052e-06 
936.182 3.00693e-06 
936.621 3.00315e-06 
937.061 2.99923e-06 
937.5 2.99528e-06 
937.939 2.99144e-06 
938.379 2.98779e-06 
938.818 2.98436e-06 
939.258 2.98118e-06 
939.697 2.97831e-06 
940.137 2.97586e-06 
940.576 2.97391e-06 
941.016 2.97247e-06 
941.455 2.97145e-06 
941.895 2.97068e-06 
942.334 2.97002e-06 
942.773 2.9694e-06 
943.213 2.96883e-06 
943.652 2.96831e-06 
944.092 2.96781e-06 
944.531 2.96731e-06 
944.971 2.96678e-06 
945.41 2.96627e-06 
945.85 2.96586e-06 
946.289 2.96561e-06 
946.729 2.96553e-06 
947.168 2.96556e-06 
947.607 2.96565e-06 
948.047 2.96574e-06 
948.486 2.96572e-06 
948.926 2.96547e-06 
949.365 2.96479e-06 
949.805 2.96348e-06 
950.244 2.9614e-06 
950.684 2.95858e-06 
951.123 2.95519e-06 
951.562 2.9515e-06 
952.002 2.94784e-06 
952.441 2.94461e-06 
952.881 2.94223e-06 
953.32 2.94112e-06 
953.76 2.94166e-06 
954.199 2.94418e-06 
954.639 2.94893e-06 
955.078 2.95608e-06 
955.518 2.96565e-06 
955.957 2.97739e-06 
956.396 2.99082e-06 
956.836 3.00527e-06 
957.275 3.02004e-06 
957.715 3.0346e-06 
958.154 3.04863e-06 
958.594 3.06215e-06 
959.033 3.07549e-06 
959.473 3.08925e-06 
959.912 3.1042e-06 
960.352 3.12114e-06 
960.791 3.14072e-06 
961.23 3.16327e-06 
961.67 3.18865e-06 
962.109 3.21604e-06 
962.549 3.24384e-06 
962.988 3.26988e-06 
963.428 3.29178e-06 
963.867 3.30714e-06 
964.307 3.31394e-06 
964.746 3.31112e-06 
965.186 3.29922e-06 
965.625 3.2809e-06 
966.064 3.2597e-06 
966.504 3.23852e-06 
966.943 3.21915e-06 
967.383 3.20264e-06 
967.822 3.1905e-06 
968.262 3.18439e-06 
968.701 3.18621e-06 
969.141 3.19941e-06 
969.58 3.2284e-06 
970.02 3.27597e-06 
970.459 3.34091e-06 
970.898 3.41715e-06 
971.338 3.49608e-06 
971.777 3.56974e-06 
972.217 3.6322e-06 
972.656 3.68041e-06 
973.096 3.71457e-06 
973.535 3.73846e-06 
973.975 3.75946e-06 
974.414 3.78654e-06 
974.854 3.82875e-06 
975.293 3.8943e-06 
975.732 3.99062e-06 
976.172 4.12435e-06 
976.611 4.29609e-06 
977.051 4.49811e-06 
977.49 4.71487e-06 
977.93 4.92266e-06 
978.369 5.08377e-06 
978.809 5.14468e-06 
979.248 5.05858e-06 
979.688 4.82353e-06 
980.127 4.49688e-06 
980.566 4.16326e-06 
981.006 3.8867e-06 
981.445 3.69639e-06 
981.885 3.59334e-06 
982.324 3.56626e-06 
982.764 3.60614e-06 
983.203 3.70848e-06 
983.643 3.87234e-06 
984.082 4.09912e-06 
984.521 4.38919e-06 
984.961 4.73541e-06 
985.4 5.11901e-06 
985.84 5.50687e-06 
986.279 5.85152e-06 
986.719 6.0875e-06 
987.158 6.1367e-06 
987.598 5.94777e-06 
988.037 5.54448e-06 
988.477 5.0331e-06 
988.916 4.54842e-06 
989.355 4.19101e-06 
989.795 4.01825e-06 
990.234 4.06455e-06 
990.674 4.37972e-06 
991.113 5.08036e-06 
991.553 6.43237e-06 
991.992 9.06154e-06 
992.432 1.4437e-05 
992.871 2.46303e-05 
993.311 3.34655e-05 
993.75 2.90358e-05 
994.189 1.79387e-05 
994.629 1.07388e-05 
995.068 7.17758e-06 
995.508 5.34129e-06 
995.947 4.32664e-06 
996.387 3.75049e-06 
996.826 3.44078e-06 
997.266 3.31772e-06 
997.705 3.35132e-06 
998.145 3.54935e-06 
998.584 3.95925e-06 
999.023 4.68579e-06 
999.463 5.94203e-06 
999.902 8.18305e-06 
1000.34 1.24551e-05 
1000.78 2.11564e-05 
1001.22 3.70242e-05 
1001.66 4.84061e-05 
1002.1 3.97759e-05 
1002.54 2.33782e-05 
1002.98 1.3401e-05 
1003.42 8.45007e-06 
1003.86 5.83648e-06 
1004.3 4.32578e-06 
1004.74 3.3824e-06 
1005.18 2.75604e-06 
1005.62 2.31946e-06 
1006.05 2.00304e-06 
1006.49 1.76627e-06 
1006.93 1.58436e-06 
1007.37 1.44146e-06 
1007.81 1.32706e-06 
1008.25 1.23399e-06 
1008.69 1.15718e-06 
1009.13 1.09302e-06 
1009.57 1.03883e-06 
1010.01 9.92625e-07 
1010.45 9.52885e-07 
1010.89 9.18443e-07 
1011.33 8.88383e-07 
1011.77 8.61984e-07 
1012.21 8.38667e-07 
1012.65 8.17966e-07 
1013.09 7.99499e-07 
1013.53 7.82952e-07 
1013.96 7.68069e-07 
1014.4 7.54631e-07 
1014.84 7.42457e-07 
1015.28 7.31394e-07 
1015.72 7.21311e-07 
1016.16 7.12095e-07 
1016.6 7.03651e-07 
1017.04 6.95897e-07 
1017.48 6.88761e-07 
1017.92 6.82179e-07 
1018.36 6.76098e-07 
1018.8 6.70469e-07 
1019.24 6.65249e-07 
1019.68 6.60403e-07 
1020.12 6.55896e-07 
1020.56 6.51699e-07 
1021 6.47786e-07 
1021.44 6.44133e-07 
1021.88 6.40719e-07 
