#energy geo_1 
600 3.85757e-06 
600.439 3.8329e-06 
600.879 3.80994e-06 
601.318 3.78839e-06 
601.758 3.76827e-06 
602.197 3.74966e-06 
602.637 3.73207e-06 
603.076 3.71532e-06 
603.516 3.70114e-06 
603.955 3.69132e-06 
604.395 3.68647e-06 
604.834 3.68591e-06 
605.273 3.6885e-06 
605.713 3.6932e-06 
606.152 3.69947e-06 
606.592 3.70723e-06 
607.031 3.71661e-06 
607.471 3.72792e-06 
607.91 3.7417e-06 
608.35 3.75872e-06 
608.789 3.77991e-06 
609.229 3.80626e-06 
609.668 3.83854e-06 
610.107 3.87608e-06 
610.547 3.91702e-06 
610.986 3.95947e-06 
611.426 4.00552e-06 
611.865 4.0618e-06 
612.305 4.14066e-06 
612.744 4.25866e-06 
613.184 4.4407e-06 
613.623 4.73368e-06 
614.062 5.23657e-06 
614.502 6.17588e-06 
614.941 8.08443e-06 
615.381 1.17633e-05 
615.82 1.45674e-05 
616.26 1.13281e-05 
616.699 7.86048e-06 
617.139 6.0799e-06 
617.578 5.19696e-06 
618.018 4.72029e-06 
618.457 4.43955e-06 
618.896 4.26189e-06 
619.336 4.14284e-06 
619.775 4.05935e-06 
620.215 3.99865e-06 
620.654 3.95322e-06 
621.094 3.91846e-06 
621.533 3.89144e-06 
621.973 3.87023e-06 
622.412 3.85356e-06 
622.852 3.84052e-06 
623.291 3.83053e-06 
623.73 3.82318e-06 
624.17 3.81823e-06 
624.609 3.81549e-06 
625.049 3.8148e-06 
625.488 3.81603e-06 
625.928 3.81907e-06 
626.367 3.82384e-06 
626.807 3.83029e-06 
627.246 3.83839e-06 
627.686 3.84815e-06 
628.125 3.85966e-06 
628.564 3.87302e-06 
629.004 3.88836e-06 
629.443 3.90571e-06 
629.883 3.92515e-06 
630.322 3.94677e-06 
630.762 3.97073e-06 
631.201 3.99725e-06 
631.641 4.02653e-06 
632.08 4.05882e-06 
632.52 4.09434e-06 
632.959 4.13331e-06 
633.398 4.17592e-06 
633.838 4.22218e-06 
634.277 4.27207e-06 
634.717 4.32518e-06 
635.156 4.38045e-06 
635.596 4.43565e-06 
636.035 4.48712e-06 
636.475 4.53034e-06 
636.914 4.56129e-06 
637.354 4.57762e-06 
637.793 4.57967e-06 
638.232 4.57056e-06 
638.672 4.5536e-06 
639.111 4.53168e-06 
639.551 4.50679e-06 
639.99 4.48063e-06 
640.43 4.45525e-06 
640.869 4.43252e-06 
641.309 4.4136e-06 
641.748 4.39845e-06 
642.188 4.38614e-06 
642.627 4.37551e-06 
643.066 4.36653e-06 
643.506 4.3601e-06 
643.945 4.35716e-06 
644.385 4.35718e-06 
644.824 4.35721e-06 
645.264 4.35321e-06 
645.703 4.34136e-06 
646.143 4.3193e-06 
646.582 4.28677e-06 
647.021 4.2456e-06 
647.461 4.19633e-06 
647.9 4.13887e-06 
648.34 4.07376e-06 
648.779 4.0038e-06 
649.219 3.93427e-06 
649.658 3.86892e-06 
650.098 3.80895e-06 
650.537 3.75404e-06 
650.977 3.70353e-06 
651.416 3.65714e-06 
651.855 3.61536e-06 
652.295 3.57847e-06 
652.734 3.54571e-06 
653.174 3.51827e-06 
653.613 3.50068e-06 
654.053 3.49688e-06 
654.492 3.5081e-06 
654.932 3.53294e-06 
655.371 3.56859e-06 
655.811 3.61137e-06 
656.25 3.65673e-06 
656.689 3.69877e-06 
657.129 3.7309e-06 
657.568 3.74825e-06 
658.008 3.75039e-06 
658.447 3.74234e-06 
658.887 3.73254e-06 
659.326 3.73008e-06 
659.766 3.74124e-06 
660.205 3.76725e-06 
660.645 3.80516e-06 
661.084 3.85301e-06 
661.523 3.91685e-06 
661.963 4.01295e-06 
662.402 4.16875e-06 
662.842 4.42166e-06 
663.281 4.83221e-06 
663.721 5.51918e-06 
664.16 6.73887e-06 
664.6 9.08823e-06 
665.039 1.39281e-05 
665.479 2.23958e-05 
665.918 2.52356e-05 
666.357 1.73705e-05 
666.797 1.09157e-05 
667.236 7.6115e-06 
667.676 5.94426e-06 
668.115 5.02824e-06 
668.555 4.48089e-06 
668.994 4.13079e-06 
669.434 3.89455e-06 
669.873 3.72825e-06 
670.312 3.60715e-06 
670.752 3.51651e-06 
671.191 3.44714e-06 
671.631 3.39305e-06 
672.07 3.35024e-06 
672.51 3.31593e-06 
672.949 3.28816e-06 
673.389 3.26549e-06 
673.828 3.24686e-06 
674.268 3.23149e-06 
674.707 3.21876e-06 
675.146 3.2082e-06 
675.586 3.19943e-06 
676.025 3.19216e-06 
676.465 3.18613e-06 
676.904 3.18115e-06 
677.344 3.17704e-06 
677.783 3.17366e-06 
678.223 3.17089e-06 
678.662 3.1686e-06 
679.102 3.16671e-06 
679.541 3.16514e-06 
679.98 3.16382e-06 
680.42 3.1627e-06 
680.859 3.16175e-06 
681.299 3.16093e-06 
681.738 3.16023e-06 
682.178 3.15965e-06 
682.617 3.15917e-06 
683.057 3.15881e-06 
683.496 3.15856e-06 
683.936 3.15844e-06 
684.375 3.15843e-06 
684.814 3.15855e-06 
685.254 3.15879e-06 
685.693 3.15915e-06 
686.133 3.15963e-06 
686.572 3.1602e-06 
687.012 3.16087e-06 
687.451 3.16162e-06 
687.891 3.16244e-06 
688.33 3.16331e-06 
688.77 3.16421e-06 
689.209 3.16516e-06 
689.648 3.16616e-06 
690.088 3.16721e-06 
690.527 3.16834e-06 
690.967 3.16958e-06 
691.406 3.17095e-06 
691.846 3.1725e-06 
692.285 3.17425e-06 
692.725 3.17624e-06 
693.164 3.1785e-06 
693.604 3.18104e-06 
694.043 3.18389e-06 
694.482 3.18706e-06 
694.922 3.19056e-06 
695.361 3.1944e-06 
695.801 3.19858e-06 
696.24 3.2031e-06 
696.68 3.20795e-06 
697.119 3.2131e-06 
697.559 3.21852e-06 
697.998 3.22417e-06 
698.438 3.23e-06 
698.877 3.23597e-06 
699.316 3.24201e-06 
699.756 3.24811e-06 
700.195 3.25424e-06 
700.635 3.26044e-06 
701.074 3.26673e-06 
701.514 3.2732e-06 
701.953 3.27998e-06 
702.393 3.28719e-06 
702.832 3.29504e-06 
703.271 3.30374e-06 
703.711 3.31356e-06 
704.15 3.32482e-06 
704.59 3.33786e-06 
705.029 3.35304e-06 
705.469 3.37067e-06 
705.908 3.39088e-06 
706.348 3.41345e-06 
706.787 3.43747e-06 
707.227 3.4611e-06 
707.666 3.4814e-06 
708.105 3.49485e-06 
708.545 3.4985e-06 
708.984 3.49133e-06 
709.424 3.47476e-06 
709.863 3.45189e-06 
710.303 3.42612e-06 
710.742 3.40013e-06 
711.182 3.37557e-06 
711.621 3.35325e-06 
712.061 3.33338e-06 
712.5 3.31592e-06 
712.939 3.30068e-06 
713.379 3.28742e-06 
713.818 3.27594e-06 
714.258 3.26605e-06 
714.697 3.25758e-06 
715.137 3.25044e-06 
715.576 3.24454e-06 
716.016 3.23982e-06 
716.455 3.23626e-06 
716.895 3.23386e-06 
717.334 3.2326e-06 
717.773 3.23252e-06 
718.213 3.2336e-06 
718.652 3.23588e-06 
719.092 3.23937e-06 
719.531 3.24414e-06 
719.971 3.25024e-06 
720.41 3.25778e-06 
720.85 3.26691e-06 
721.289 3.2778e-06 
721.729 3.29065e-06 
722.168 3.30576e-06 
722.607 3.32344e-06 
723.047 3.34411e-06 
723.486 3.36829e-06 
723.926 3.39666e-06 
724.365 3.43004e-06 
724.805 3.46946e-06 
725.244 3.51608e-06 
725.684 3.57108e-06 
726.123 3.6354e-06 
726.562 3.70918e-06 
727.002 3.79097e-06 
727.441 3.87661e-06 
727.881 3.95823e-06 
728.32 4.02455e-06 
728.76 4.06339e-06 
729.199 4.06643e-06 
729.639 4.03334e-06 
730.078 3.97189e-06 
730.518 3.89407e-06 
730.957 3.81133e-06 
731.396 3.73181e-06 
731.836 3.66e-06 
732.275 3.59759e-06 
732.715 3.54461e-06 
733.154 3.50024e-06 
733.594 3.46335e-06 
734.033 3.43282e-06 
734.473 3.40759e-06 
734.912 3.38678e-06 
735.352 3.36963e-06 
735.791 3.35554e-06 
736.23 3.34401e-06 
736.67 3.33462e-06 
737.109 3.32704e-06 
737.549 3.32102e-06 
737.988 3.31631e-06 
738.428 3.31274e-06 
738.867 3.31016e-06 
739.307 3.30842e-06 
739.746 3.3074e-06 
740.186 3.30701e-06 
740.625 3.30715e-06 
741.064 3.30773e-06 
741.504 3.30868e-06 
741.943 3.30992e-06 
742.383 3.31139e-06 
742.822 3.31305e-06 
743.262 3.31485e-06 
743.701 3.31677e-06 
744.141 3.3188e-06 
744.58 3.32093e-06 
745.02 3.32316e-06 
745.459 3.32549e-06 
745.898 3.32794e-06 
746.338 3.3305e-06 
746.777 3.33318e-06 
747.217 3.33597e-06 
747.656 3.33885e-06 
748.096 3.3418e-06 
748.535 3.34478e-06 
748.975 3.34775e-06 
749.414 3.35066e-06 
749.854 3.35344e-06 
750.293 3.35603e-06 
750.732 3.35835e-06 
751.172 3.36036e-06 
751.611 3.36201e-06 
752.051 3.36328e-06 
752.49 3.36416e-06 
752.93 3.36466e-06 
753.369 3.36484e-06 
753.809 3.36474e-06 
754.248 3.36441e-06 
754.688 3.36395e-06 
755.127 3.3634e-06 
755.566 3.36284e-06 
756.006 3.36232e-06 
756.445 3.36189e-06 
756.885 3.36156e-06 
757.324 3.36136e-06 
757.764 3.36131e-06 
758.203 3.36141e-06 
758.643 3.36166e-06 
759.082 3.36207e-06 
759.521 3.36261e-06 
759.961 3.3633e-06 
760.4 3.36414e-06 
760.84 3.36514e-06 
761.279 3.36632e-06 
761.719 3.36774e-06 
762.158 3.36945e-06 
762.598 3.37153e-06 
763.037 3.37411e-06 
763.477 3.3773e-06 
763.916 3.38123e-06 
764.355 3.38607e-06 
764.795 3.39198e-06 
765.234 3.39917e-06 
765.674 3.40784e-06 
766.113 3.41829e-06 
766.553 3.43085e-06 
766.992 3.44594e-06 
767.432 3.46404e-06 
767.871 3.48571e-06 
768.311 3.51145e-06 
768.75 3.54164e-06 
769.189 3.5762e-06 
769.629 3.61425e-06 
770.068 3.65363e-06 
770.508 3.69057e-06 
770.947 3.72008e-06 
771.387 3.73733e-06 
771.826 3.73974e-06 
772.266 3.72834e-06 
772.705 3.70725e-06 
773.145 3.68178e-06 
773.584 3.65661e-06 
774.023 3.63495e-06 
774.463 3.61857e-06 
774.902 3.60829e-06 
775.342 3.60441e-06 
775.781 3.60704e-06 
776.221 3.61627e-06 
776.66 3.63225e-06 
777.1 3.655e-06 
777.539 3.68428e-06 
777.979 3.71908e-06 
778.418 3.75714e-06 
778.857 3.79437e-06 
779.297 3.82498e-06 
779.736 3.84271e-06 
780.176 3.8431e-06 
780.615 3.82566e-06 
781.055 3.79406e-06 
781.494 3.75419e-06 
781.934 3.71183e-06 
782.373 3.67116e-06 
782.812 3.63454e-06 
783.252 3.60285e-06 
783.691 3.57611e-06 
784.131 3.55393e-06 
784.57 3.53571e-06 
785.01 3.52086e-06 
785.449 3.50885e-06 
785.889 3.49919e-06 
786.328 3.49149e-06 
786.768 3.48543e-06 
787.207 3.48074e-06 
787.646 3.4772e-06 
788.086 3.47463e-06 
788.525 3.47288e-06 
788.965 3.47183e-06 
789.404 3.47137e-06 
789.844 3.47141e-06 
790.283 3.47189e-06 
790.723 3.47272e-06 
791.162 3.47385e-06 
791.602 3.47523e-06 
792.041 3.4768e-06 
792.48 3.47853e-06 
792.92 3.48036e-06 
793.359 3.48228e-06 
793.799 3.48424e-06 
794.238 3.48623e-06 
794.678 3.48823e-06 
795.117 3.49024e-06 
795.557 3.49224e-06 
795.996 3.49424e-06 
796.436 3.49625e-06 
796.875 3.49827e-06 
797.314 3.50031e-06 
797.754 3.50236e-06 
798.193 3.50444e-06 
798.633 3.50655e-06 
799.072 3.50869e-06 
799.512 3.51084e-06 
799.951 3.51301e-06 
800.391 3.51518e-06 
800.83 3.51735e-06 
801.27 3.5195e-06 
801.709 3.5216e-06 
802.148 3.52365e-06 
802.588 3.52564e-06 
803.027 3.52754e-06 
803.467 3.52938e-06 
803.906 3.53114e-06 
804.346 3.53283e-06 
804.785 3.53448e-06 
805.225 3.5361e-06 
805.664 3.53772e-06 
806.104 3.53935e-06 
806.543 3.54102e-06 
806.982 3.54276e-06 
807.422 3.54459e-06 
807.861 3.54653e-06 
808.301 3.5486e-06 
808.74 3.55082e-06 
809.18 3.55321e-06 
809.619 3.55579e-06 
810.059 3.55857e-06 
810.498 3.56158e-06 
810.938 3.56483e-06 
811.377 3.56832e-06 
811.816 3.57209e-06 
812.256 3.5761e-06 
812.695 3.58038e-06 
813.135 3.58494e-06 
813.574 3.58978e-06 
814.014 3.59492e-06 
814.453 3.60037e-06 
814.893 3.60616e-06 
815.332 3.61233e-06 
815.771 3.61892e-06 
816.211 3.62599e-06 
816.65 3.63363e-06 
817.09 3.64197e-06 
817.529 3.65115e-06 
817.969 3.66136e-06 
818.408 3.67284e-06 
818.848 3.68583e-06 
819.287 3.7006e-06 
819.727 3.71731e-06 
820.166 3.73593e-06 
820.605 3.75605e-06 
821.045 3.77664e-06 
821.484 3.79591e-06 
821.924 3.81141e-06 
822.363 3.82075e-06 
822.803 3.82257e-06 
823.242 3.81719e-06 
823.682 3.80646e-06 
824.121 3.79287e-06 
824.561 3.7786e-06 
825 3.76513e-06 
825.439 3.75323e-06 
825.879 3.74316e-06 
826.318 3.73488e-06 
826.758 3.72822e-06 
827.197 3.72295e-06 
827.637 3.71887e-06 
828.076 3.71581e-06 
828.516 3.7136e-06 
828.955 3.71215e-06 
829.395 3.71134e-06 
829.834 3.71111e-06 
830.273 3.71139e-06 
830.713 3.71217e-06 
831.152 3.71339e-06 
831.592 3.71506e-06 
832.031 3.71714e-06 
832.471 3.71965e-06 
832.91 3.72257e-06 
833.35 3.72592e-06 
833.789 3.72968e-06 
834.229 3.73387e-06 
834.668 3.7385e-06 
835.107 3.74358e-06 
835.547 3.74914e-06 
835.986 3.75521e-06 
836.426 3.76183e-06 
836.865 3.76905e-06 
837.305 3.77693e-06 
837.744 3.78554e-06 
838.184 3.79498e-06 
838.623 3.80534e-06 
839.062 3.81676e-06 
839.502 3.82937e-06 
839.941 3.84337e-06 
840.381 3.85901e-06 
840.82 3.87652e-06 
841.26 3.89615e-06 
841.699 3.91808e-06 
842.139 3.94226e-06 
842.578 3.96831e-06 
843.018 3.99518e-06 
843.457 4.02106e-06 
843.896 4.04347e-06 
844.336 4.05992e-06 
844.775 4.06889e-06 
845.215 4.0706e-06 
845.654 4.06686e-06 
846.094 4.06019e-06 
846.533 4.05287e-06 
846.973 4.04649e-06 
847.412 4.04188e-06 
847.852 4.03933e-06 
848.291 4.03884e-06 
848.73 4.04024e-06 
849.17 4.0433e-06 
849.609 4.04779e-06 
850.049 4.05349e-06 
850.488 4.0602e-06 
850.928 4.06775e-06 
851.367 4.07597e-06 
851.807 4.08467e-06 
852.246 4.0937e-06 
852.686 4.10286e-06 
853.125 4.11196e-06 
853.564 4.12081e-06 
854.004 4.12919e-06 
854.443 4.13695e-06 
854.883 4.14394e-06 
855.322 4.15005e-06 
855.762 4.15522e-06 
856.201 4.15944e-06 
856.641 4.16275e-06 
857.08 4.16523e-06 
857.52 4.16699e-06 
857.959 4.16816e-06 
858.398 4.16886e-06 
858.838 4.16924e-06 
859.277 4.16947e-06 
859.717 4.16971e-06 
860.156 4.17011e-06 
860.596 4.17082e-06 
861.035 4.17204e-06 
861.475 4.17395e-06 
861.914 4.1767e-06 
862.354 4.18034e-06 
862.793 4.18489e-06 
863.232 4.19029e-06 
863.672 4.19649e-06 
864.111 4.20343e-06 
864.551 4.21108e-06 
864.99 4.21952e-06 
865.43 4.22892e-06 
865.869 4.23953e-06 
866.309 4.25166e-06 
866.748 4.26554e-06 
867.188 4.28144e-06 
867.627 4.29968e-06 
868.066 4.32062e-06 
868.506 4.34469e-06 
868.945 4.37227e-06 
869.385 4.40376e-06 
869.824 4.4395e-06 
870.264 4.47978e-06 
870.703 4.52481e-06 
871.143 4.57468e-06 
871.582 4.62942e-06 
872.021 4.68889e-06 
872.461 4.75232e-06 
872.9 4.81788e-06 
873.34 4.88248e-06 
873.779 4.94213e-06 
874.219 4.99327e-06 
874.658 5.03352e-06 
875.098 5.06251e-06 
875.537 5.08246e-06 
875.977 5.09611e-06 
876.416 5.10593e-06 
876.855 5.11381e-06 
877.295 5.12166e-06 
877.734 5.13232e-06 
878.174 5.14896e-06 
878.613 5.17408e-06 
879.053 5.20849e-06 
879.492 5.25146e-06 
879.932 5.30167e-06 
880.371 5.35891e-06 
880.811 5.42452e-06 
881.25 5.5e-06 
881.689 5.58478e-06 
882.129 5.67468e-06 
882.568 5.76263e-06 
883.008 5.84061e-06 
883.447 5.90077e-06 
883.887 5.93675e-06 
884.326 5.94479e-06 
884.766 5.92151e-06 
885.205 5.86392e-06 
885.645 5.7732e-06 
886.084 5.65623e-06 
886.523 5.52374e-06 
886.963 5.38492e-06 
887.402 5.24465e-06 
887.842 5.10566e-06 
888.281 4.97084e-06 
888.721 4.84347e-06 
889.16 4.72604e-06 
889.6 4.61854e-06 
890.039 4.51752e-06 
890.479 4.42146e-06 
890.918 4.33577e-06 
891.357 4.26811e-06 
891.797 4.22236e-06 
892.236 4.19456e-06 
892.676 4.17434e-06 
893.115 4.14918e-06 
893.555 4.1093e-06 
893.994 4.0493e-06 
894.434 3.97013e-06 
894.873 3.87622e-06 
895.312 3.7705e-06 
895.752 3.65569e-06 
896.191 3.53653e-06 
896.631 3.42383e-06 
897.07 3.33053e-06 
897.51 3.26211e-06 
897.949 3.21444e-06 
898.389 3.18188e-06 
898.828 3.16916e-06 
899.268 3.19798e-06 
899.707 3.30828e-06 
900.146 3.5545e-06 
900.586 4.01985e-06 
901.025 4.86884e-06 
901.465 6.45408e-06 
901.904 9.57677e-06 
902.344 1.60419e-05 
902.783 2.75237e-05 
903.223 3.36907e-05 
903.662 2.57119e-05 
904.102 1.51015e-05 
904.541 9.01029e-06 
904.98 5.98533e-06 
905.42 4.3854e-06 
905.859 3.47436e-06 
906.299 2.93273e-06 
906.738 2.61205e-06 
907.178 2.43846e-06 
907.617 2.36966e-06 
908.057 2.37524e-06 
908.496 2.42986e-06 
908.936 2.52153e-06 
909.375 2.66035e-06 
909.814 2.88332e-06 
910.254 3.25219e-06 
910.693 3.85587e-06 
911.133 4.84484e-06 
911.572 6.5203e-06 
912.012 9.54455e-06 
912.451 1.54698e-05 
912.891 2.75026e-05 
913.33 4.47679e-05 
913.77 4.62697e-05 
914.209 3.12058e-05 
914.648 1.76874e-05 
915.088 1.06524e-05 
915.527 7.09867e-06 
915.967 5.13667e-06 
916.406 3.94792e-06 
916.846 3.16805e-06 
917.285 2.62303e-06 
917.725 2.22374e-06 
918.164 1.92126e-06 
918.604 1.68652e-06 
919.043 1.50103e-06 
919.482 1.35227e-06 
919.922 1.23144e-06 
920.361 1.13217e-06 
920.801 1.04975e-06 
921.24 9.80686e-07 
921.68 9.22296e-07 
922.119 8.7254e-07 
922.559 8.29831e-07 
922.998 7.92927e-07 
923.438 7.6085e-07 
923.877 7.32814e-07 
924.316 7.08188e-07 
924.756 6.8646e-07 
925.195 6.67208e-07 
925.635 6.50085e-07 
926.074 6.348e-07 
926.514 6.21108e-07 
926.953 6.08801e-07 
927.393 5.97701e-07 
927.832 5.87652e-07 
928.271 5.78522e-07 
928.711 5.70193e-07 
929.15 5.62563e-07 
929.59 5.55544e-07 
930.029 5.49062e-07 
930.469 5.43053e-07 
930.908 5.37465e-07 
931.348 5.32257e-07 
931.787 5.27391e-07 
932.227 5.22841e-07 
932.666 5.18582e-07 
933.105 5.14595e-07 
933.545 5.10859e-07 
933.984 5.07361e-07 
934.424 5.04081e-07 
934.863 5.01005e-07 
935.303 4.98114e-07 
935.742 4.95393e-07 
936.182 4.92821e-07 
936.621 4.90381e-07 
937.061 4.88052e-07 
937.5 4.85812e-07 
937.939 4.83642e-07 
938.379 4.81522e-07 
938.818 4.79438e-07 
939.258 4.77378e-07 
939.697 4.75336e-07 
940.137 4.73312e-07 
940.576 4.71309e-07 
941.016 4.69335e-07 
941.455 4.67401e-07 
941.895 4.65521e-07 
942.334 4.63708e-07 
942.773 4.61976e-07 
943.213 4.60335e-07 
943.652 4.58796e-07 
944.092 4.57368e-07 
944.531 4.5606e-07 
944.971 4.5488e-07 
945.41 4.53838e-07 
945.85 4.52943e-07 
946.289 4.52206e-07 
946.729 4.51635e-07 
947.168 4.5124e-07 
947.607 4.51029e-07 
948.047 4.51007e-07 
948.486 4.51184e-07 
948.926 4.51569e-07 
949.365 4.52174e-07 
949.805 4.53019e-07 
950.244 4.54124e-07 
950.684 4.55518e-07 
951.123 4.57235e-07 
951.562 4.59317e-07 
952.002 4.61815e-07 
952.441 4.64791e-07 
952.881 4.68327e-07 
953.32 4.72522e-07 
953.76 4.77505e-07 
954.199 4.8343e-07 
954.639 4.90479e-07 
955.078 4.98841e-07 
955.518 5.08674e-07 
955.957 5.20036e-07 
956.396 5.3276e-07 
956.836 5.46286e-07 
957.275 5.59503e-07 
957.715 5.70732e-07 
958.154 5.78038e-07 
958.594 5.79913e-07 
959.033 5.75974e-07 
959.473 5.67153e-07 
959.912 5.55233e-07 
960.352 5.42094e-07 
960.791 5.29182e-07 
961.23 5.17356e-07 
961.67 5.0699e-07 
962.109 4.98143e-07 
962.549 4.90712e-07 
962.988 4.84525e-07 
963.428 4.79397e-07 
963.867 4.75155e-07 
964.307 4.7165e-07 
964.746 4.68755e-07 
965.186 4.66365e-07 
965.625 4.64395e-07 
966.064 4.62776e-07 
966.504 4.6145e-07 
966.943 4.60371e-07 
967.383 4.59502e-07 
967.822 4.58812e-07 
968.262 4.58276e-07 
968.701 4.5787e-07 
969.141 4.5758e-07 
969.58 4.5739e-07 
970.02 4.57286e-07 
970.459 4.5726e-07 
970.898 4.57302e-07 
971.338 4.57404e-07 
971.777 4.5756e-07 
972.217 4.57765e-07 
972.656 4.58013e-07 
973.096 4.583e-07 
973.535 4.58623e-07 
973.975 4.58978e-07 
974.414 4.59363e-07 
974.854 4.59775e-07 
975.293 4.60212e-07 
975.732 4.60673e-07 
976.172 4.61154e-07 
976.611 4.61656e-07 
977.051 4.62175e-07 
977.49 4.62713e-07 
977.93 4.63266e-07 
978.369 4.63834e-07 
978.809 4.64416e-07 
979.248 4.65012e-07 
979.688 4.6562e-07 
980.127 4.6624e-07 
980.566 4.66872e-07 
981.006 4.67514e-07 
981.445 4.68166e-07 
981.885 4.68828e-07 
982.324 4.69499e-07 
982.764 4.70179e-07 
983.203 4.70867e-07 
983.643 4.71564e-07 
984.082 4.72268e-07 
984.521 4.7298e-07 
984.961 4.73699e-07 
985.4 4.74424e-07 
985.84 4.75156e-07 
986.279 4.75895e-07 
986.719 4.7664e-07 
987.158 4.77391e-07 
987.598 4.78147e-07 
988.037 4.78909e-07 
988.477 4.79677e-07 
988.916 4.80449e-07 
989.355 4.81227e-07 
989.795 4.8201e-07 
990.234 4.82797e-07 
990.674 4.8359e-07 
991.113 4.84386e-07 
991.553 4.85187e-07 
991.992 4.85993e-07 
992.432 4.86802e-07 
992.871 4.87616e-07 
993.311 4.88433e-07 
993.75 4.89255e-07 
994.189 4.9008e-07 
994.629 4.90909e-07 
995.068 4.91742e-07 
995.508 4.92578e-07 
995.947 4.93418e-07 
996.387 4.94261e-07 
996.826 4.95108e-07 
997.266 4.95957e-07 
997.705 4.9681e-07 
998.145 4.97666e-07 
998.584 4.98526e-07 
999.023 4.99388e-07 
999.463 5.00254e-07 
999.902 5.01122e-07 
1000.34 5.01993e-07 
1000.78 5.02868e-07 
1001.22 5.03745e-07 
1001.66 5.04625e-07 
1002.1 5.05507e-07 
1002.54 5.06393e-07 
1002.98 5.07281e-07 
1003.42 5.08172e-07 
1003.86 5.09065e-07 
1004.3 5.09961e-07 
1004.74 5.10859e-07 
1005.18 5.1176e-07 
1005.62 5.12664e-07 
1006.05 5.1357e-07 
1006.49 5.14478e-07 
1006.93 5.15389e-07 
1007.37 5.16302e-07 
1007.81 5.17217e-07 
1008.25 5.18135e-07 
1008.69 5.19055e-07 
1009.13 5.19977e-07 
1009.57 5.20901e-07 
1010.01 5.21828e-07 
1010.45 5.22757e-07 
1010.89 5.23688e-07 
1011.33 5.24621e-07 
1011.77 5.25556e-07 
1012.21 5.26492e-07 
1012.65 5.27432e-07 
1013.09 5.28373e-07 
1013.53 5.29316e-07 
1013.96 5.30261e-07 
1014.4 5.31207e-07 
1014.84 5.32156e-07 
1015.28 5.33106e-07 
1015.72 5.34058e-07 
1016.16 5.35012e-07 
1016.6 5.35968e-07 
1017.04 5.36925e-07 
1017.48 5.37884e-07 
1017.92 5.38844e-07 
1018.36 5.39806e-07 
1018.8 5.4077e-07 
1019.24 5.41735e-07 
1019.68 5.42702e-07 
1020.12 5.4367e-07 
1020.56 5.4464e-07 
1021 5.45611e-07 
1021.44 5.46583e-07 
1021.88 5.47557e-07 
1022.31 5.48532e-07 
