#energy geo_1 
600 2.51969e-06 
600.439 2.52351e-06 
600.879 2.52732e-06 
601.318 2.53112e-06 
601.758 2.53492e-06 
602.197 2.53871e-06 
602.637 2.54248e-06 
603.076 2.54624e-06 
603.516 2.54999e-06 
603.955 2.55372e-06 
604.395 2.55744e-06 
604.834 2.56114e-06 
605.273 2.56482e-06 
605.713 2.56848e-06 
606.152 2.57212e-06 
606.592 2.57573e-06 
607.031 2.57931e-06 
607.471 2.58287e-06 
607.91 2.58639e-06 
608.35 2.58988e-06 
608.789 2.59334e-06 
609.229 2.59676e-06 
609.668 2.60014e-06 
610.107 2.60347e-06 
610.547 2.60677e-06 
610.986 2.61001e-06 
611.426 2.61321e-06 
611.865 2.61635e-06 
612.305 2.61943e-06 
612.744 2.62246e-06 
613.184 2.62543e-06 
613.623 2.62833e-06 
614.062 2.63116e-06 
614.502 2.63393e-06 
614.941 2.63662e-06 
615.381 2.63923e-06 
615.82 2.64177e-06 
616.26 2.64422e-06 
616.699 2.64658e-06 
617.139 2.64886e-06 
617.578 2.65105e-06 
618.018 2.65315e-06 
618.457 2.65515e-06 
618.896 2.65705e-06 
619.336 2.65885e-06 
619.775 2.66055e-06 
620.215 2.66214e-06 
620.654 2.66364e-06 
621.094 2.66502e-06 
621.533 2.66629e-06 
621.973 2.66746e-06 
622.412 2.66853e-06 
622.852 2.66949e-06 
623.291 2.67034e-06 
623.73 2.67109e-06 
624.17 2.67175e-06 
624.609 2.67232e-06 
625.049 2.6728e-06 
625.488 2.67319e-06 
625.928 2.67352e-06 
626.367 2.67379e-06 
626.807 2.67402e-06 
627.246 2.67421e-06 
627.686 2.6744e-06 
628.125 2.67459e-06 
628.564 2.67483e-06 
629.004 2.67515e-06 
629.443 2.67558e-06 
629.883 2.67617e-06 
630.322 2.67699e-06 
630.762 2.67811e-06 
631.201 2.67962e-06 
631.641 2.68164e-06 
632.08 2.68431e-06 
632.52 2.68781e-06 
632.959 2.6924e-06 
633.398 2.69837e-06 
633.838 2.70615e-06 
634.277 2.71631e-06 
634.717 2.72963e-06 
635.156 2.74724e-06 
635.596 2.77077e-06 
636.035 2.80268e-06 
636.475 2.84676e-06 
636.914 2.90923e-06 
637.354 3.00062e-06 
637.793 3.14004e-06 
638.232 3.36449e-06 
638.672 3.75192e-06 
639.111 4.48069e-06 
639.551 5.96829e-06 
639.99 8.80471e-06 
640.43 1.07841e-05 
640.869 8.295e-06 
641.309 5.70577e-06 
641.748 4.35565e-06 
642.188 3.68494e-06 
642.627 3.32403e-06 
643.066 3.11279e-06 
643.506 2.9804e-06 
643.945 2.89294e-06 
644.385 2.83278e-06 
644.824 2.79008e-06 
645.264 2.75906e-06 
645.703 2.73613e-06 
646.143 2.71897e-06 
646.582 2.70604e-06 
647.021 2.69628e-06 
647.461 2.68894e-06 
647.9 2.68349e-06 
648.34 2.67952e-06 
648.779 2.67673e-06 
649.219 2.67491e-06 
649.658 2.67387e-06 
650.098 2.67348e-06 
650.537 2.67363e-06 
650.977 2.67424e-06 
651.416 2.67523e-06 
651.855 2.67655e-06 
652.295 2.67815e-06 
652.734 2.68e-06 
653.174 2.68206e-06 
653.613 2.6843e-06 
654.053 2.68671e-06 
654.492 2.68926e-06 
654.932 2.69194e-06 
655.371 2.69473e-06 
655.811 2.69762e-06 
656.25 2.7006e-06 
656.689 2.70366e-06 
657.129 2.7068e-06 
657.568 2.71001e-06 
658.008 2.71327e-06 
658.447 2.71659e-06 
658.887 2.71996e-06 
659.326 2.72338e-06 
659.766 2.72684e-06 
660.205 2.73034e-06 
660.645 2.73387e-06 
661.084 2.73744e-06 
661.523 2.74105e-06 
661.963 2.74468e-06 
662.402 2.74834e-06 
662.842 2.75202e-06 
663.281 2.75573e-06 
663.721 2.75946e-06 
664.16 2.76321e-06 
664.6 2.76698e-06 
665.039 2.77077e-06 
665.479 2.77458e-06 
665.918 2.77841e-06 
666.357 2.78225e-06 
666.797 2.78611e-06 
667.236 2.78998e-06 
667.676 2.79387e-06 
668.115 2.79777e-06 
668.555 2.80169e-06 
668.994 2.80562e-06 
669.434 2.80955e-06 
669.873 2.8135e-06 
670.312 2.81747e-06 
670.752 2.82144e-06 
671.191 2.82543e-06 
671.631 2.82942e-06 
672.07 2.83342e-06 
672.51 2.83744e-06 
672.949 2.84146e-06 
673.389 2.84549e-06 
673.828 2.84953e-06 
674.268 2.85358e-06 
674.707 2.85764e-06 
675.146 2.86171e-06 
675.586 2.86578e-06 
676.025 2.86986e-06 
676.465 2.87395e-06 
676.904 2.87805e-06 
677.344 2.88216e-06 
677.783 2.88627e-06 
678.223 2.89039e-06 
678.662 2.89452e-06 
679.102 2.89866e-06 
679.541 2.9028e-06 
679.98 2.90695e-06 
680.42 2.9111e-06 
680.859 2.91527e-06 
681.299 2.91944e-06 
681.738 2.92361e-06 
682.178 2.92779e-06 
682.617 2.93198e-06 
683.057 2.93618e-06 
683.496 2.94038e-06 
683.936 2.94459e-06 
684.375 2.94881e-06 
684.814 2.95303e-06 
685.254 2.95725e-06 
685.693 2.96149e-06 
686.133 2.96573e-06 
686.572 2.96997e-06 
687.012 2.97422e-06 
687.451 2.97848e-06 
687.891 2.98275e-06 
688.33 2.98702e-06 
688.77 2.99129e-06 
689.209 2.99557e-06 
689.648 2.99986e-06 
690.088 3.00416e-06 
690.527 3.00846e-06 
690.967 3.01276e-06 
691.406 3.01707e-06 
691.846 3.02139e-06 
692.285 3.02572e-06 
692.725 3.03005e-06 
693.164 3.03438e-06 
693.604 3.03873e-06 
694.043 3.04307e-06 
694.482 3.04743e-06 
694.922 3.05179e-06 
695.361 3.05615e-06 
695.801 3.06052e-06 
696.24 3.0649e-06 
696.68 3.06929e-06 
697.119 3.07368e-06 
697.559 3.07807e-06 
697.998 3.08247e-06 
698.438 3.08688e-06 
698.877 3.0913e-06 
699.316 3.09572e-06 
699.756 3.10014e-06 
700.195 3.10457e-06 
700.635 3.10901e-06 
701.074 3.11346e-06 
701.514 3.11791e-06 
701.953 3.12237e-06 
702.393 3.12683e-06 
702.832 3.1313e-06 
703.271 3.13577e-06 
703.711 3.14026e-06 
704.15 3.14474e-06 
704.59 3.14924e-06 
705.029 3.15374e-06 
705.469 3.15824e-06 
705.908 3.16276e-06 
706.348 3.16728e-06 
706.787 3.1718e-06 
707.227 3.17633e-06 
707.666 3.18087e-06 
708.105 3.18541e-06 
708.545 3.18996e-06 
708.984 3.19452e-06 
709.424 3.19908e-06 
709.863 3.20365e-06 
710.303 3.20823e-06 
710.742 3.21281e-06 
711.182 3.21739e-06 
711.621 3.22199e-06 
712.061 3.22659e-06 
712.5 3.23119e-06 
712.939 3.2358e-06 
713.379 3.24041e-06 
713.818 3.24503e-06 
714.258 3.24966e-06 
714.697 3.25429e-06 
715.137 3.25893e-06 
715.576 3.26357e-06 
716.016 3.26821e-06 
716.455 3.27286e-06 
716.895 3.27751e-06 
717.334 3.28217e-06 
717.773 3.28683e-06 
718.213 3.2915e-06 
718.652 3.29616e-06 
719.092 3.30083e-06 
719.531 3.3055e-06 
719.971 3.31018e-06 
720.41 3.31485e-06 
720.85 3.31952e-06 
721.289 3.3242e-06 
721.729 3.32887e-06 
722.168 3.33355e-06 
722.607 3.33822e-06 
723.047 3.34289e-06 
723.486 3.34756e-06 
723.926 3.35222e-06 
724.365 3.35688e-06 
724.805 3.36153e-06 
725.244 3.36617e-06 
725.684 3.37081e-06 
726.123 3.37544e-06 
726.562 3.38006e-06 
727.002 3.38466e-06 
727.441 3.38925e-06 
727.881 3.39384e-06 
728.32 3.3984e-06 
728.76 3.40295e-06 
729.199 3.40748e-06 
729.639 3.41199e-06 
730.078 3.41647e-06 
730.518 3.42093e-06 
730.957 3.42537e-06 
731.396 3.42978e-06 
731.836 3.43416e-06 
732.275 3.4385e-06 
732.715 3.44281e-06 
733.154 3.44709e-06 
733.594 3.45132e-06 
734.033 3.45551e-06 
734.473 3.45966e-06 
734.912 3.46376e-06 
735.352 3.46781e-06 
735.791 3.4718e-06 
736.23 3.47573e-06 
736.67 3.47961e-06 
737.109 3.48342e-06 
737.549 3.48717e-06 
737.988 3.49084e-06 
738.428 3.49444e-06 
738.867 3.49797e-06 
739.307 3.50141e-06 
739.746 3.50477e-06 
740.186 3.50804e-06 
740.625 3.51122e-06 
741.064 3.5143e-06 
741.504 3.51729e-06 
741.943 3.52017e-06 
742.383 3.52295e-06 
742.822 3.52561e-06 
743.262 3.52816e-06 
743.701 3.5306e-06 
744.141 3.53292e-06 
744.58 3.53511e-06 
745.02 3.53718e-06 
745.459 3.53913e-06 
745.898 3.54094e-06 
746.338 3.54263e-06 
746.777 3.54418e-06 
747.217 3.5456e-06 
747.656 3.54689e-06 
748.096 3.54805e-06 
748.535 3.54907e-06 
748.975 3.54997e-06 
749.414 3.55074e-06 
749.854 3.55139e-06 
750.293 3.55193e-06 
750.732 3.55237e-06 
751.172 3.5527e-06 
751.611 3.55295e-06 
752.051 3.55312e-06 
752.49 3.55325e-06 
752.93 3.55333e-06 
753.369 3.5534e-06 
753.809 3.55349e-06 
754.248 3.55363e-06 
754.688 3.55387e-06 
755.127 3.55425e-06 
755.566 3.55483e-06 
756.006 3.5557e-06 
756.445 3.55693e-06 
756.885 3.55866e-06 
757.324 3.56101e-06 
757.764 3.56417e-06 
758.203 3.56837e-06 
758.643 3.5739e-06 
759.082 3.58116e-06 
759.521 3.59065e-06 
759.961 3.6031e-06 
760.4 3.61947e-06 
760.84 3.64115e-06 
761.279 3.67016e-06 
761.719 3.70955e-06 
762.158 3.76404e-06 
762.598 3.84132e-06 
763.037 3.95449e-06 
763.477 4.12729e-06 
763.916 4.40585e-06 
764.355 4.88753e-06 
764.795 5.79539e-06 
765.234 7.64638e-06 
765.674 1.10889e-05 
766.113 1.32887e-05 
766.553 1.06601e-05 
766.992 7.51675e-06 
767.432 5.73854e-06 
767.871 4.85275e-06 
768.311 4.38094e-06 
768.75 4.10719e-06 
769.189 3.93667e-06 
769.629 3.82448e-06 
770.068 3.74746e-06 
770.508 3.69286e-06 
770.947 3.65318e-06 
771.387 3.6238e-06 
771.826 3.60176e-06 
772.266 3.58509e-06 
772.705 3.57243e-06 
773.145 3.56283e-06 
773.584 3.5556e-06 
774.023 3.55025e-06 
774.463 3.5464e-06 
774.902 3.54375e-06 
775.342 3.54209e-06 
775.781 3.54125e-06 
776.221 3.54109e-06 
776.66 3.5415e-06 
777.1 3.5424e-06 
777.539 3.54371e-06 
777.979 3.54537e-06 
778.418 3.54734e-06 
778.857 3.54958e-06 
779.297 3.55205e-06 
779.736 3.55472e-06 
780.176 3.55757e-06 
780.615 3.56058e-06 
781.055 3.56374e-06 
781.494 3.56702e-06 
781.934 3.57041e-06 
782.373 3.57391e-06 
782.812 3.5775e-06 
783.252 3.58118e-06 
783.691 3.58493e-06 
784.131 3.58875e-06 
784.57 3.59264e-06 
785.01 3.59658e-06 
785.449 3.60058e-06 
785.889 3.60463e-06 
786.328 3.60873e-06 
786.768 3.61287e-06 
787.207 3.61705e-06 
787.646 3.62127e-06 
788.086 3.62552e-06 
788.525 3.62981e-06 
788.965 3.63413e-06 
789.404 3.63848e-06 
789.844 3.64285e-06 
790.283 3.64726e-06 
790.723 3.65168e-06 
791.162 3.65614e-06 
791.602 3.66061e-06 
792.041 3.66511e-06 
792.48 3.66963e-06 
792.92 3.67417e-06 
793.359 3.67873e-06 
793.799 3.6833e-06 
794.238 3.6879e-06 
794.678 3.69251e-06 
795.117 3.69714e-06 
795.557 3.70179e-06 
795.996 3.70645e-06 
796.436 3.71113e-06 
796.875 3.71583e-06 
797.314 3.72054e-06 
797.754 3.72526e-06 
798.193 3.73e-06 
798.633 3.73475e-06 
799.072 3.73952e-06 
799.512 3.7443e-06 
799.951 3.74909e-06 
800.391 3.7539e-06 
800.83 3.75872e-06 
801.27 3.76355e-06 
801.709 3.7684e-06 
802.148 3.77326e-06 
802.588 3.77813e-06 
803.027 3.78301e-06 
803.467 3.78791e-06 
803.906 3.79282e-06 
804.346 3.79774e-06 
804.785 3.80267e-06 
805.225 3.80762e-06 
805.664 3.81258e-06 
806.104 3.81755e-06 
806.543 3.82253e-06 
806.982 3.82752e-06 
807.422 3.83253e-06 
807.861 3.83754e-06 
808.301 3.84257e-06 
808.74 3.84761e-06 
809.18 3.85267e-06 
809.619 3.85773e-06 
810.059 3.86281e-06 
810.498 3.8679e-06 
810.938 3.873e-06 
811.377 3.87811e-06 
811.816 3.88324e-06 
812.256 3.88837e-06 
812.695 3.89352e-06 
813.135 3.89868e-06 
813.574 3.90385e-06 
814.014 3.90904e-06 
814.453 3.91424e-06 
814.893 3.91945e-06 
815.332 3.92467e-06 
815.771 3.9299e-06 
816.211 3.93515e-06 
816.65 3.94041e-06 
817.09 3.94568e-06 
817.529 3.95096e-06 
817.969 3.95625e-06 
818.408 3.96156e-06 
818.848 3.96688e-06 
819.287 3.97221e-06 
819.727 3.97755e-06 
820.166 3.98291e-06 
820.605 3.98827e-06 
821.045 3.99365e-06 
821.484 3.99904e-06 
821.924 4.00444e-06 
822.363 4.00985e-06 
822.803 4.01528e-06 
823.242 4.02071e-06 
823.682 4.02616e-06 
824.121 4.03161e-06 
824.561 4.03708e-06 
825 4.04256e-06 
825.439 4.04804e-06 
825.879 4.05354e-06 
826.318 4.05905e-06 
826.758 4.06456e-06 
827.197 4.07008e-06 
827.637 4.07561e-06 
828.076 4.08115e-06 
828.516 4.0867e-06 
828.955 4.09225e-06 
829.395 4.0978e-06 
829.834 4.10336e-06 
830.273 4.10893e-06 
830.713 4.11449e-06 
831.152 4.12006e-06 
831.592 4.12563e-06 
832.031 4.1312e-06 
832.471 4.13677e-06 
832.91 4.14234e-06 
833.35 4.1479e-06 
833.789 4.15345e-06 
834.229 4.159e-06 
834.668 4.16454e-06 
835.107 4.17007e-06 
835.547 4.17559e-06 
835.986 4.18109e-06 
836.426 4.18658e-06 
836.865 4.19205e-06 
837.305 4.1975e-06 
837.744 4.20292e-06 
838.184 4.20832e-06 
838.623 4.21368e-06 
839.062 4.21902e-06 
839.502 4.22432e-06 
839.941 4.22958e-06 
840.381 4.2348e-06 
840.82 4.23997e-06 
841.26 4.24509e-06 
841.699 4.25016e-06 
842.139 4.25517e-06 
842.578 4.26012e-06 
843.018 4.265e-06 
843.457 4.26981e-06 
843.896 4.27454e-06 
844.336 4.27919e-06 
844.775 4.28375e-06 
845.215 4.28821e-06 
845.654 4.29258e-06 
846.094 4.29685e-06 
846.533 4.301e-06 
846.973 4.30503e-06 
847.412 4.30893e-06 
847.852 4.31271e-06 
848.291 4.31634e-06 
848.73 4.31984e-06 
849.17 4.32317e-06 
849.609 4.32635e-06 
850.049 4.32936e-06 
850.488 4.33219e-06 
850.928 4.33484e-06 
851.367 4.3373e-06 
851.807 4.33956e-06 
852.246 4.34161e-06 
852.686 4.34346e-06 
853.125 4.34508e-06 
853.564 4.34646e-06 
854.004 4.34762e-06 
854.443 4.34853e-06 
854.883 4.34919e-06 
855.322 4.3496e-06 
855.762 4.34974e-06 
856.201 4.34962e-06 
856.641 4.34923e-06 
857.08 4.34857e-06 
857.52 4.34762e-06 
857.959 4.3464e-06 
858.398 4.34489e-06 
858.838 4.34311e-06 
859.277 4.34106e-06 
859.717 4.33872e-06 
860.156 4.33612e-06 
860.596 4.33326e-06 
861.035 4.33016e-06 
861.475 4.32683e-06 
861.914 4.32328e-06 
862.354 4.31953e-06 
862.793 4.31561e-06 
863.232 4.31157e-06 
863.672 4.30743e-06 
864.111 4.30324e-06 
864.551 4.29905e-06 
864.99 4.29494e-06 
865.43 4.29098e-06 
865.869 4.28729e-06 
866.309 4.28396e-06 
866.748 4.28115e-06 
867.188 4.27902e-06 
867.627 4.27782e-06 
868.066 4.27779e-06 
868.506 4.27928e-06 
868.945 4.28271e-06 
869.385 4.28864e-06 
869.824 4.2978e-06 
870.264 4.31113e-06 
870.703 4.3299e-06 
871.143 4.35585e-06 
871.582 4.39145e-06 
872.021 4.4402e-06 
872.461 4.50731e-06 
872.9 4.60066e-06 
873.34 4.73283e-06 
873.779 4.92463e-06 
874.219 5.21249e-06 
874.658 5.66445e-06 
875.098 6.41774e-06 
875.537 7.77354e-06 
875.977 1.04374e-05 
876.416 1.58474e-05 
876.855 2.33808e-05 
877.295 2.33787e-05 
877.734 1.65846e-05 
878.174 1.09055e-05 
878.613 7.97506e-06 
879.053 6.48887e-06 
879.492 5.66816e-06 
879.932 5.17595e-06 
880.371 4.86052e-06 
880.811 4.64763e-06 
881.25 4.49801e-06 
881.689 4.38942e-06 
882.129 4.30854e-06 
882.568 4.24705e-06 
883.008 4.19952e-06 
883.447 4.16228e-06 
883.887 4.1328e-06 
884.326 4.10929e-06 
884.766 4.09043e-06 
885.205 4.07525e-06 
885.645 4.06303e-06 
886.084 4.05322e-06 
886.523 4.04537e-06 
886.963 4.03916e-06 
887.402 4.03431e-06 
887.842 4.0306e-06 
888.281 4.02787e-06 
888.721 4.02598e-06 
889.16 4.02479e-06 
889.6 4.02422e-06 
890.039 4.02419e-06 
890.479 4.02463e-06 
890.918 4.02548e-06 
891.357 4.0267e-06 
891.797 4.02823e-06 
892.236 4.03005e-06 
892.676 4.03212e-06 
893.115 4.03443e-06 
893.555 4.03693e-06 
893.994 4.03962e-06 
894.434 4.04248e-06 
894.873 4.04549e-06 
895.312 4.04864e-06 
895.752 4.05191e-06 
896.191 4.0553e-06 
896.631 4.05879e-06 
897.07 4.06237e-06 
897.51 4.06605e-06 
897.949 4.0698e-06 
898.389 4.07364e-06 
898.828 4.07754e-06 
899.268 4.08151e-06 
899.707 4.08554e-06 
900.146 4.08962e-06 
900.586 4.09376e-06 
901.025 4.09795e-06 
901.465 4.10218e-06 
901.904 4.10645e-06 
902.344 4.11077e-06 
902.783 4.11512e-06 
903.223 4.11952e-06 
903.662 4.12394e-06 
904.102 4.12839e-06 
904.541 4.13288e-06 
904.98 4.1374e-06 
905.42 4.14194e-06 
905.859 4.14651e-06 
906.299 4.1511e-06 
906.738 4.15572e-06 
907.178 4.16036e-06 
907.617 4.16502e-06 
908.057 4.1697e-06 
908.496 4.17441e-06 
908.936 4.17913e-06 
909.375 4.18387e-06 
909.814 4.18862e-06 
910.254 4.1934e-06 
910.693 4.19819e-06 
911.133 4.20299e-06 
911.572 4.20781e-06 
912.012 4.21264e-06 
912.451 4.21749e-06 
912.891 4.22236e-06 
913.33 4.22723e-06 
913.77 4.23212e-06 
914.209 4.23702e-06 
914.648 4.24193e-06 
915.088 4.24686e-06 
915.527 4.2518e-06 
915.967 4.25674e-06 
916.406 4.2617e-06 
916.846 4.26667e-06 
917.285 4.27165e-06 
917.725 4.27663e-06 
918.164 4.28163e-06 
918.604 4.28664e-06 
919.043 4.29166e-06 
919.482 4.29668e-06 
919.922 4.30172e-06 
920.361 4.30676e-06 
920.801 4.31182e-06 
921.24 4.31688e-06 
921.68 4.32195e-06 
922.119 4.32703e-06 
922.559 4.33211e-06 
922.998 4.3372e-06 
923.438 4.3423e-06 
923.877 4.34741e-06 
924.316 4.35253e-06 
924.756 4.35765e-06 
925.195 4.36279e-06 
925.635 4.36792e-06 
926.074 4.37307e-06 
926.514 4.37822e-06 
926.953 4.38338e-06 
927.393 4.38855e-06 
927.832 4.39372e-06 
928.271 4.3989e-06 
928.711 4.40408e-06 
929.15 4.40928e-06 
929.59 4.41448e-06 
930.029 4.41968e-06 
930.469 4.42489e-06 
930.908 4.43011e-06 
931.348 4.43534e-06 
931.787 4.44057e-06 
932.227 4.4458e-06 
932.666 4.45105e-06 
933.105 4.45629e-06 
933.545 4.46155e-06 
933.984 4.46681e-06 
934.424 4.47208e-06 
934.863 4.47735e-06 
935.303 4.48262e-06 
935.742 4.48791e-06 
936.182 4.4932e-06 
936.621 4.49849e-06 
937.061 4.5038e-06 
937.5 4.5091e-06 
937.939 4.51441e-06 
938.379 4.51973e-06 
938.818 4.52505e-06 
939.258 4.53038e-06 
939.697 4.53571e-06 
940.137 4.54105e-06 
940.576 4.5464e-06 
941.016 4.55175e-06 
941.455 4.5571e-06 
941.895 4.56246e-06 
942.334 4.56783e-06 
942.773 4.5732e-06 
943.213 4.57858e-06 
943.652 4.58396e-06 
944.092 4.58934e-06 
944.531 4.59473e-06 
944.971 4.60013e-06 
945.41 4.60553e-06 
945.85 4.61094e-06 
946.289 4.61636e-06 
946.729 4.62177e-06 
947.168 4.6272e-06 
947.607 4.63263e-06 
948.047 4.63806e-06 
948.486 4.6435e-06 
948.926 4.64894e-06 
949.365 4.65439e-06 
949.805 4.65985e-06 
950.244 4.66531e-06 
950.684 4.67077e-06 
951.123 4.67624e-06 
951.562 4.68171e-06 
952.002 4.68719e-06 
952.441 4.69268e-06 
952.881 4.69817e-06 
953.32 4.70367e-06 
953.76 4.70917e-06 
954.199 4.71467e-06 
954.639 4.72018e-06 
955.078 4.7257e-06 
955.518 4.73122e-06 
955.957 4.73675e-06 
956.396 4.74228e-06 
956.836 4.74782e-06 
957.275 4.75336e-06 
957.715 4.7589e-06 
958.154 4.76446e-06 
958.594 4.77002e-06 
959.033 4.77558e-06 
959.473 4.78114e-06 
959.912 4.78672e-06 
960.352 4.7923e-06 
960.791 4.79788e-06 
961.23 4.80347e-06 
961.67 4.80907e-06 
962.109 4.81466e-06 
962.549 4.82027e-06 
962.988 4.82588e-06 
963.428 4.8315e-06 
963.867 4.83712e-06 
964.307 4.84275e-06 
964.746 4.84838e-06 
965.186 4.85402e-06 
965.625 4.85966e-06 
966.064 4.86531e-06 
966.504 4.87097e-06 
966.943 4.87662e-06 
967.383 4.88229e-06 
967.822 4.88796e-06 
968.262 4.89364e-06 
968.701 4.89933e-06 
969.141 4.90501e-06 
969.58 4.91071e-06 
970.02 4.91641e-06 
970.459 4.92212e-06 
970.898 4.92783e-06 
971.338 4.93355e-06 
971.777 4.93927e-06 
972.217 4.945e-06 
972.656 4.95074e-06 
973.096 4.95648e-06 
973.535 4.96223e-06 
973.975 4.96798e-06 
974.414 4.97374e-06 
974.854 4.97951e-06 
975.293 4.98528e-06 
975.732 4.99106e-06 
976.172 4.99685e-06 
976.611 5.00264e-06 
977.051 5.00844e-06 
977.49 5.01424e-06 
977.93 5.02005e-06 
978.369 5.02587e-06 
978.809 5.03169e-06 
979.248 5.03753e-06 
979.688 5.04336e-06 
980.127 5.04921e-06 
980.566 5.05506e-06 
981.006 5.06092e-06 
981.445 5.06678e-06 
981.885 5.07266e-06 
982.324 5.07854e-06 
982.764 5.08442e-06 
983.203 5.09032e-06 
983.643 5.09622e-06 
984.082 5.10213e-06 
984.521 5.10804e-06 
984.961 5.11397e-06 
985.4 5.1199e-06 
985.84 5.12583e-06 
986.279 5.13178e-06 
986.719 5.13773e-06 
987.158 5.1437e-06 
987.598 5.14967e-06 
988.037 5.15564e-06 
988.477 5.16163e-06 
988.916 5.16762e-06 
989.355 5.17363e-06 
989.795 5.17964e-06 
990.234 5.18565e-06 
990.674 5.19168e-06 
991.113 5.19772e-06 
991.553 5.20376e-06 
991.992 5.20981e-06 
992.432 5.21587e-06 
992.871 5.22194e-06 
993.311 5.22803e-06 
993.75 5.23411e-06 
994.189 5.24021e-06 
994.629 5.24632e-06 
995.068 5.25243e-06 
995.508 5.25856e-06 
995.947 5.2647e-06 
996.387 5.27084e-06 
996.826 5.27699e-06 
997.266 5.28316e-06 
997.705 5.28934e-06 
998.145 5.29552e-06 
998.584 5.30172e-06 
999.023 5.30792e-06 
999.463 5.31414e-06 
999.902 5.32037e-06 
1000.34 5.3266e-06 
1000.78 5.33285e-06 
1001.22 5.33911e-06 
1001.66 5.34538e-06 
1002.1 5.35167e-06 
1002.54 5.35796e-06 
1002.98 5.36427e-06 
1003.42 5.37058e-06 
1003.86 5.37691e-06 
1004.3 5.38325e-06 
1004.74 5.38961e-06 
1005.18 5.39597e-06 
1005.62 5.40235e-06 
1006.05 5.40874e-06 
1006.49 5.41514e-06 
1006.93 5.42156e-06 
1007.37 5.42799e-06 
1007.81 5.43444e-06 
1008.25 5.44089e-06 
1008.69 5.44736e-06 
1009.13 5.45385e-06 
1009.57 5.46034e-06 
1010.01 5.46686e-06 
1010.45 5.47338e-06 
1010.89 5.47993e-06 
1011.33 5.48648e-06 
1011.77 5.49305e-06 
1012.21 5.49964e-06 
1012.65 5.50624e-06 
1013.09 5.51286e-06 
1013.53 5.51949e-06 
1013.96 5.52614e-06 
1014.4 5.5328e-06 
1014.84 5.53948e-06 
1015.28 5.54618e-06 
1015.72 5.5529e-06 
1016.16 5.55963e-06 
1016.6 5.56638e-06 
1017.04 5.57315e-06 
1017.48 5.57993e-06 
1017.92 5.58673e-06 
1018.36 5.59355e-06 
1018.8 5.60039e-06 
1019.24 5.60724e-06 
1019.68 5.61412e-06 
1020.12 5.62101e-06 
1020.56 5.62792e-06 
1021 5.63486e-06 
1021.44 5.64181e-06 
1021.88 5.64877e-06 
1022.31 5.65576e-06 
