#energy geo_1 
600 2.5394e-06 
600.439 2.54093e-06 
600.879 2.54247e-06 
601.318 2.54401e-06 
601.758 2.54554e-06 
602.197 2.54709e-06 
602.637 2.54863e-06 
603.076 2.55017e-06 
603.516 2.55171e-06 
603.955 2.55326e-06 
604.395 2.55482e-06 
604.834 2.55638e-06 
605.273 2.55794e-06 
605.713 2.55952e-06 
606.152 2.5611e-06 
606.592 2.5627e-06 
607.031 2.56431e-06 
607.471 2.56593e-06 
607.91 2.56758e-06 
608.35 2.56924e-06 
608.789 2.57093e-06 
609.229 2.57266e-06 
609.668 2.57442e-06 
610.107 2.57622e-06 
610.547 2.57807e-06 
610.986 2.57997e-06 
611.426 2.58194e-06 
611.865 2.58399e-06 
612.305 2.58613e-06 
612.744 2.58837e-06 
613.184 2.59074e-06 
613.623 2.59326e-06 
614.062 2.59595e-06 
614.502 2.59885e-06 
614.941 2.60199e-06 
615.381 2.60542e-06 
615.82 2.6092e-06 
616.26 2.61341e-06 
616.699 2.61813e-06 
617.139 2.62347e-06 
617.578 2.62957e-06 
618.018 2.63658e-06 
618.457 2.64469e-06 
618.896 2.65414e-06 
619.336 2.66516e-06 
619.775 2.678e-06 
620.215 2.69282e-06 
620.654 2.7096e-06 
621.094 2.72794e-06 
621.533 2.74684e-06 
621.973 2.76448e-06 
622.412 2.77838e-06 
622.852 2.78602e-06 
623.291 2.78592e-06 
623.73 2.77839e-06 
624.17 2.76536e-06 
624.609 2.74946e-06 
625.049 2.73297e-06 
625.488 2.71745e-06 
625.928 2.70368e-06 
626.367 2.6919e-06 
626.807 2.68206e-06 
627.246 2.67395e-06 
627.686 2.66735e-06 
628.125 2.662e-06 
628.564 2.65769e-06 
629.004 2.65424e-06 
629.443 2.65149e-06 
629.883 2.64934e-06 
630.322 2.64766e-06 
630.762 2.64639e-06 
631.201 2.64546e-06 
631.641 2.64481e-06 
632.08 2.64439e-06 
632.52 2.64418e-06 
632.959 2.64415e-06 
633.398 2.64427e-06 
633.838 2.64453e-06 
634.277 2.6449e-06 
634.717 2.64539e-06 
635.156 2.64597e-06 
635.596 2.64666e-06 
636.035 2.64743e-06 
636.475 2.64831e-06 
636.914 2.64927e-06 
637.354 2.65033e-06 
637.793 2.6515e-06 
638.232 2.65277e-06 
638.672 2.65417e-06 
639.111 2.65571e-06 
639.551 2.6574e-06 
639.99 2.65926e-06 
640.43 2.66132e-06 
640.869 2.6636e-06 
641.309 2.66615e-06 
641.748 2.669e-06 
642.188 2.6722e-06 
642.627 2.67582e-06 
643.066 2.67992e-06 
643.506 2.68459e-06 
643.945 2.68994e-06 
644.385 2.69609e-06 
644.824 2.70321e-06 
645.264 2.71147e-06 
645.703 2.72111e-06 
646.143 2.73242e-06 
646.582 2.74575e-06 
647.021 2.76152e-06 
647.461 2.78027e-06 
647.9 2.80261e-06 
648.34 2.82929e-06 
648.779 2.8611e-06 
649.219 2.89884e-06 
649.658 2.9431e-06 
650.098 2.99394e-06 
650.537 3.05024e-06 
650.977 3.10898e-06 
651.416 3.16456e-06 
651.855 3.20901e-06 
652.295 3.23391e-06 
652.734 3.23382e-06 
653.174 3.20899e-06 
653.613 3.16525e-06 
654.053 3.1111e-06 
654.492 3.05438e-06 
654.932 3.00055e-06 
655.371 2.9525e-06 
655.811 2.91131e-06 
656.25 2.87694e-06 
656.689 2.84884e-06 
657.129 2.82631e-06 
657.568 2.80863e-06 
658.008 2.7952e-06 
658.447 2.78556e-06 
658.887 2.77934e-06 
659.326 2.77635e-06 
659.766 2.77649e-06 
660.205 2.7798e-06 
660.645 2.78643e-06 
661.084 2.79664e-06 
661.523 2.8108e-06 
661.963 2.82933e-06 
662.402 2.85262e-06 
662.842 2.88087e-06 
663.281 2.91376e-06 
663.721 2.95002e-06 
664.16 2.98684e-06 
664.6 3.01968e-06 
665.039 3.04278e-06 
665.479 3.051e-06 
665.918 3.04211e-06 
666.357 3.01795e-06 
666.797 2.98344e-06 
667.236 2.94431e-06 
667.676 2.90519e-06 
668.115 2.86897e-06 
668.555 2.83699e-06 
668.994 2.80955e-06 
669.434 2.78642e-06 
669.873 2.7671e-06 
670.312 2.75104e-06 
670.752 2.73774e-06 
671.191 2.72672e-06 
671.631 2.7176e-06 
672.07 2.71006e-06 
672.51 2.70385e-06 
672.949 2.69874e-06 
673.389 2.69457e-06 
673.828 2.6912e-06 
674.268 2.68853e-06 
674.707 2.68645e-06 
675.146 2.68491e-06 
675.586 2.68384e-06 
676.025 2.68321e-06 
676.465 2.68298e-06 
676.904 2.68314e-06 
677.344 2.68368e-06 
677.783 2.6846e-06 
678.223 2.68591e-06 
678.662 2.68763e-06 
679.102 2.68981e-06 
679.541 2.69249e-06 
679.98 2.69574e-06 
680.42 2.69965e-06 
680.859 2.70431e-06 
681.299 2.70985e-06 
681.738 2.71638e-06 
682.178 2.72397e-06 
682.617 2.73263e-06 
683.057 2.74216e-06 
683.496 2.75206e-06 
683.936 2.76147e-06 
684.375 2.76913e-06 
684.814 2.77376e-06 
685.254 2.77455e-06 
685.693 2.7716e-06 
686.133 2.7658e-06 
686.572 2.75846e-06 
687.012 2.75077e-06 
687.451 2.74353e-06 
687.891 2.73719e-06 
688.33 2.73187e-06 
688.77 2.72757e-06 
689.209 2.72419e-06 
689.648 2.72161e-06 
690.088 2.71971e-06 
690.527 2.71838e-06 
690.967 2.71752e-06 
691.406 2.71706e-06 
691.846 2.71693e-06 
692.285 2.71709e-06 
692.725 2.7175e-06 
693.164 2.71811e-06 
693.604 2.71892e-06 
694.043 2.7199e-06 
694.482 2.72103e-06 
694.922 2.72231e-06 
695.361 2.72373e-06 
695.801 2.72529e-06 
696.24 2.72699e-06 
696.68 2.72883e-06 
697.119 2.73082e-06 
697.559 2.73297e-06 
697.998 2.73529e-06 
698.438 2.7378e-06 
698.877 2.74053e-06 
699.316 2.74349e-06 
699.756 2.74673e-06 
700.195 2.75028e-06 
700.635 2.75419e-06 
701.074 2.75853e-06 
701.514 2.76336e-06 
701.953 2.76879e-06 
702.393 2.77492e-06 
702.832 2.78189e-06 
703.271 2.78987e-06 
703.711 2.79907e-06 
704.15 2.80974e-06 
704.59 2.8222e-06 
705.029 2.83682e-06 
705.469 2.85401e-06 
705.908 2.87424e-06 
706.348 2.89794e-06 
706.787 2.92535e-06 
707.227 2.95635e-06 
707.666 2.99003e-06 
708.105 3.02426e-06 
708.545 3.05544e-06 
708.984 3.07886e-06 
709.424 3.09009e-06 
709.863 3.08694e-06 
710.303 3.07054e-06 
710.742 3.04477e-06 
711.182 3.01444e-06 
711.621 2.98358e-06 
712.061 2.95482e-06 
712.5 2.92943e-06 
712.939 2.90778e-06 
713.379 2.88971e-06 
713.818 2.87483e-06 
714.258 2.86269e-06 
714.697 2.85286e-06 
715.137 2.84495e-06 
715.576 2.83862e-06 
716.016 2.83361e-06 
716.455 2.82968e-06 
716.895 2.82666e-06 
717.334 2.8244e-06 
717.773 2.82277e-06 
718.213 2.82169e-06 
718.652 2.82105e-06 
719.092 2.82081e-06 
719.531 2.82091e-06 
719.971 2.82129e-06 
720.41 2.82193e-06 
720.85 2.82278e-06 
721.289 2.82384e-06 
721.729 2.82505e-06 
722.168 2.82642e-06 
722.607 2.82793e-06 
723.047 2.82956e-06 
723.486 2.8313e-06 
723.926 2.83313e-06 
724.365 2.83505e-06 
724.805 2.83706e-06 
725.244 2.83914e-06 
725.684 2.84128e-06 
726.123 2.84349e-06 
726.562 2.84576e-06 
727.002 2.84808e-06 
727.441 2.85045e-06 
727.881 2.85287e-06 
728.32 2.85534e-06 
728.76 2.85784e-06 
729.199 2.86039e-06 
729.639 2.86297e-06 
730.078 2.86559e-06 
730.518 2.86824e-06 
730.957 2.87092e-06 
731.396 2.87363e-06 
731.836 2.87638e-06 
732.275 2.87915e-06 
732.715 2.88194e-06 
733.154 2.88477e-06 
733.594 2.88761e-06 
734.033 2.89049e-06 
734.473 2.89339e-06 
734.912 2.89631e-06 
735.352 2.89925e-06 
735.791 2.90221e-06 
736.23 2.90519e-06 
736.67 2.90819e-06 
737.109 2.91122e-06 
737.549 2.91426e-06 
737.988 2.91732e-06 
738.428 2.9204e-06 
738.867 2.92349e-06 
739.307 2.92661e-06 
739.746 2.92973e-06 
740.186 2.93288e-06 
740.625 2.93604e-06 
741.064 2.93922e-06 
741.504 2.94241e-06 
741.943 2.94561e-06 
742.383 2.94883e-06 
742.822 2.95206e-06 
743.262 2.95531e-06 
743.701 2.95857e-06 
744.141 2.96184e-06 
744.58 2.96512e-06 
745.02 2.96841e-06 
745.459 2.97172e-06 
745.898 2.97503e-06 
746.338 2.97836e-06 
746.777 2.98169e-06 
747.217 2.98504e-06 
747.656 2.98839e-06 
748.096 2.99176e-06 
748.535 2.99513e-06 
748.975 2.99851e-06 
749.414 3.0019e-06 
749.854 3.0053e-06 
750.293 3.00871e-06 
750.732 3.01213e-06 
751.172 3.01556e-06 
751.611 3.01899e-06 
752.051 3.02244e-06 
752.49 3.0259e-06 
752.93 3.02937e-06 
753.369 3.03286e-06 
753.809 3.03636e-06 
754.248 3.03988e-06 
754.688 3.04342e-06 
755.127 3.04699e-06 
755.566 3.05058e-06 
756.006 3.0542e-06 
756.445 3.05786e-06 
756.885 3.06157e-06 
757.324 3.06533e-06 
757.764 3.06915e-06 
758.203 3.07304e-06 
758.643 3.07702e-06 
759.082 3.0811e-06 
759.521 3.08531e-06 
759.961 3.08967e-06 
760.4 3.0942e-06 
760.84 3.09895e-06 
761.279 3.10395e-06 
761.719 3.10926e-06 
762.158 3.11494e-06 
762.598 3.12107e-06 
763.037 3.12775e-06 
763.477 3.1351e-06 
763.916 3.14327e-06 
764.355 3.15244e-06 
764.795 3.16284e-06 
765.234 3.17474e-06 
765.674 3.18848e-06 
766.113 3.20446e-06 
766.553 3.22312e-06 
766.992 3.24491e-06 
767.432 3.27024e-06 
767.871 3.29927e-06 
768.311 3.33171e-06 
768.75 3.36638e-06 
769.189 3.40099e-06 
769.629 3.43207e-06 
770.068 3.45563e-06 
770.508 3.46819e-06 
770.947 3.46784e-06 
771.387 3.4546e-06 
771.826 3.43033e-06 
772.266 3.39819e-06 
772.705 3.3619e-06 
773.145 3.32482e-06 
773.584 3.28936e-06 
774.023 3.25683e-06 
774.463 3.22772e-06 
774.902 3.20194e-06 
775.342 3.17912e-06 
775.781 3.15879e-06 
776.221 3.14049e-06 
776.66 3.12381e-06 
777.1 3.10837e-06 
777.539 3.09387e-06 
777.979 3.08005e-06 
778.418 3.0667e-06 
778.857 3.05367e-06 
779.297 3.04082e-06 
779.736 3.02802e-06 
780.176 3.01519e-06 
780.615 3.00226e-06 
781.055 2.98918e-06 
781.494 2.97592e-06 
781.934 2.96244e-06 
782.373 2.94872e-06 
782.812 2.93476e-06 
783.252 2.92059e-06 
783.691 2.90623e-06 
784.131 2.89171e-06 
784.57 2.87708e-06 
785.01 2.86241e-06 
785.449 2.84782e-06 
785.889 2.83343e-06 
786.328 2.81936e-06 
786.768 2.80582e-06 
787.207 2.79302e-06 
787.646 2.78129e-06 
788.086 2.77096e-06 
788.525 2.76249e-06 
788.965 2.75643e-06 
789.404 2.7535e-06 
789.844 2.7546e-06 
790.283 2.76091e-06 
790.723 2.77388e-06 
791.162 2.79548e-06 
791.602 2.82827e-06 
792.041 2.87566e-06 
792.48 2.94226e-06 
792.92 3.03435e-06 
793.359 3.16082e-06 
793.799 3.33469e-06 
794.238 3.57619e-06 
794.678 3.91966e-06 
795.117 4.42964e-06 
795.557 5.24001e-06 
795.996 6.65229e-06 
796.436 9.38449e-06 
796.875 1.50024e-05 
797.314 2.38079e-05 
797.754 2.49229e-05 
798.193 1.70915e-05 
798.633 1.0365e-05 
799.072 6.8146e-06 
799.512 4.99431e-06 
799.951 3.97495e-06 
800.391 3.3518e-06 
800.83 2.94327e-06 
801.27 2.66097e-06 
801.709 2.45844e-06 
802.148 2.30972e-06 
802.588 2.19977e-06 
803.027 2.11974e-06 
803.467 2.06471e-06 
803.906 2.03245e-06 
804.346 2.02297e-06 
804.785 2.03845e-06 
805.225 2.08366e-06 
805.664 2.16686e-06 
806.104 2.30174e-06 
806.543 2.51094e-06 
806.982 2.83315e-06 
807.422 3.33739e-06 
807.861 4.15505e-06 
808.301 5.55608e-06 
808.74 8.14402e-06 
809.18 1.33379e-05 
809.619 2.37413e-05 
810.059 3.55562e-05 
810.498 3.12672e-05 
810.938 1.92067e-05 
811.377 1.1001e-05 
811.816 6.87242e-06 
812.256 4.73201e-06 
812.695 3.51862e-06 
813.135 2.77333e-06 
813.574 2.28522e-06 
814.014 1.94889e-06 
814.453 1.70755e-06 
814.893 1.52856e-06 
815.332 1.39212e-06 
815.771 1.28571e-06 
816.211 1.20111e-06 
816.65 1.13272e-06 
817.09 1.07663e-06 
817.529 1.03005e-06 
817.969 9.90944e-07 
818.408 9.57801e-07 
818.848 9.29474e-07 
819.287 9.05081e-07 
819.727 8.83942e-07 
820.166 8.65519e-07 
820.605 8.49387e-07 
821.045 8.35204e-07 
821.484 8.22696e-07 
821.924 8.11642e-07 
822.363 8.0186e-07 
822.803 7.93204e-07 
823.242 7.85557e-07 
823.682 7.78827e-07 
824.121 7.72938e-07 
824.561 7.6784e-07 
825 7.63496e-07 
825.439 7.59888e-07 
825.879 7.57016e-07 
826.318 7.54899e-07 
826.758 7.53574e-07 
827.197 7.53103e-07 
827.637 7.53568e-07 
828.076 7.55073e-07 
828.516 7.57737e-07 
828.955 7.61679e-07 
829.395 7.66975e-07 
829.834 7.73596e-07 
830.273 7.81295e-07 
830.713 7.89469e-07 
831.152 7.9706e-07 
831.592 8.02623e-07 
832.031 8.04703e-07 
832.471 8.02416e-07 
832.91 7.9589e-07 
833.35 7.86185e-07 
833.789 7.74782e-07 
834.229 7.63028e-07 
834.668 7.51848e-07 
835.107 7.41733e-07 
835.547 7.32847e-07 
835.986 7.2517e-07 
836.426 7.18589e-07 
836.865 7.12961e-07 
837.305 7.08144e-07 
837.744 7.04012e-07 
838.184 7.00454e-07 
838.623 6.9738e-07 
839.062 6.9472e-07 
839.502 6.92413e-07 
839.941 6.90413e-07 
840.381 6.88685e-07 
840.82 6.87201e-07 
841.26 6.85941e-07 
841.699 6.84889e-07 
842.139 6.84038e-07 
842.578 6.83384e-07 
843.018 6.82927e-07 
843.457 6.82672e-07 
843.896 6.82628e-07 
844.336 6.8281e-07 
844.775 6.83235e-07 
845.215 6.83929e-07 
845.654 6.84921e-07 
846.094 6.86249e-07 
846.533 6.87959e-07 
846.973 6.90104e-07 
847.412 6.92753e-07 
847.852 6.95987e-07 
848.291 6.99903e-07 
848.73 7.0462e-07 
849.17 7.10285e-07 
849.609 7.17075e-07 
850.049 7.25208e-07 
850.488 7.34951e-07 
850.928 7.46634e-07 
851.367 7.60658e-07 
851.807 7.77517e-07 
852.246 7.97801e-07 
852.686 8.22209e-07 
853.125 8.51527e-07 
853.564 8.86576e-07 
854.004 9.28072e-07 
854.443 9.76356e-07 
854.883 1.03095e-06 
855.322 1.08995e-06 
855.762 1.14945e-06 
856.201 1.20346e-06 
856.641 1.24489e-06 
857.08 1.26745e-06 
857.52 1.26751e-06 
857.959 1.24514e-06 
858.398 1.20389e-06 
858.838 1.14974e-06 
859.277 1.08943e-06 
859.717 1.02887e-06 
860.156 9.72144e-07 
860.596 9.21399e-07 
861.035 8.77329e-07 
861.475 8.39726e-07 
861.914 8.07944e-07 
862.354 7.81189e-07 
862.793 7.58678e-07 
863.232 7.39704e-07 
863.672 7.23664e-07 
864.111 7.10055e-07 
864.551 6.9846e-07 
864.99 6.88542e-07 
865.43 6.80025e-07 
865.869 6.72683e-07 
866.309 6.66334e-07 
866.748 6.60825e-07 
867.188 6.56032e-07 
867.627 6.51852e-07 
868.066 6.48201e-07 
868.506 6.45006e-07 
868.945 6.42208e-07 
869.385 6.39756e-07 
869.824 6.37607e-07 
870.264 6.35724e-07 
870.703 6.34077e-07 
871.143 6.32638e-07 
871.582 6.31385e-07 
872.021 6.30297e-07 
872.461 6.29357e-07 
872.9 6.28549e-07 
873.34 6.27861e-07 
873.779 6.2728e-07 
874.219 6.26796e-07 
874.658 6.264e-07 
875.098 6.26085e-07 
875.537 6.25841e-07 
875.977 6.25665e-07 
876.416 6.25548e-07 
876.855 6.25487e-07 
877.295 6.25475e-07 
877.734 6.2551e-07 
878.174 6.25587e-07 
878.613 6.25703e-07 
879.053 6.25854e-07 
879.492 6.26038e-07 
879.932 6.26251e-07 
880.371 6.26491e-07 
880.811 6.26757e-07 
881.25 6.27044e-07 
881.689 6.27353e-07 
882.129 6.2768e-07 
882.568 6.28024e-07 
883.008 6.28384e-07 
883.447 6.28757e-07 
883.887 6.29143e-07 
884.326 6.29539e-07 
884.766 6.29945e-07 
885.205 6.30359e-07 
885.645 6.30781e-07 
886.084 6.31208e-07 
886.523 6.31641e-07 
886.963 6.32077e-07 
887.402 6.32516e-07 
887.842 6.32958e-07 
888.281 6.334e-07 
888.721 6.33842e-07 
889.16 6.34285e-07 
889.6 6.34726e-07 
890.039 6.35165e-07 
890.479 6.35601e-07 
890.918 6.36034e-07 
891.357 6.36464e-07 
891.797 6.36889e-07 
892.236 6.3731e-07 
892.676 6.37727e-07 
893.115 6.38138e-07 
893.555 6.38544e-07 
893.994 6.38945e-07 
894.434 6.39341e-07 
894.873 6.39733e-07 
895.312 6.4012e-07 
895.752 6.40503e-07 
896.191 6.40884e-07 
896.631 6.41262e-07 
897.07 6.4164e-07 
897.51 6.42018e-07 
897.949 6.42399e-07 
898.389 6.42784e-07 
898.828 6.43175e-07 
899.268 6.43577e-07 
899.707 6.43991e-07 
900.146 6.44422e-07 
900.586 6.44875e-07 
901.025 6.45354e-07 
901.465 6.45865e-07 
901.904 6.46416e-07 
902.344 6.47015e-07 
902.783 6.47669e-07 
903.223 6.48391e-07 
903.662 6.49192e-07 
904.102 6.50086e-07 
904.541 6.5109e-07 
904.98 6.52223e-07 
905.42 6.53506e-07 
905.859 6.54967e-07 
906.299 6.56635e-07 
906.738 6.58545e-07 
907.178 6.60742e-07 
907.617 6.63274e-07 
908.057 6.662e-07 
908.496 6.69594e-07 
908.936 6.73539e-07 
909.375 6.78141e-07 
909.814 6.83524e-07 
910.254 6.89842e-07 
910.693 6.97282e-07 
911.133 7.06074e-07 
911.572 7.16499e-07 
912.012 7.28903e-07 
912.451 7.43705e-07 
912.891 7.61412e-07 
913.33 7.82618e-07 
913.77 8.07991e-07 
914.209 8.38223e-07 
914.648 8.7391e-07 
915.088 9.15309e-07 
915.527 9.61944e-07 
915.967 1.01207e-06 
916.406 1.06217e-06 
916.846 1.10695e-06 
917.285 1.14026e-06 
917.725 1.15694e-06 
918.164 1.15455e-06 
918.604 1.13394e-06 
919.043 1.09862e-06 
919.482 1.05354e-06 
919.922 1.00398e-06 
920.361 9.54428e-07 
920.801 9.08046e-07 
921.24 8.66535e-07 
921.68 8.30464e-07 
922.119 7.99681e-07 
922.559 7.73672e-07 
922.998 7.51796e-07 
923.438 7.33413e-07 
923.877 7.17947e-07 
924.316 7.049e-07 
924.756 6.93858e-07 
925.195 6.84478e-07 
925.635 6.76482e-07 
926.074 6.69641e-07 
926.514 6.63768e-07 
926.953 6.58714e-07 
927.393 6.54351e-07 
927.832 6.50579e-07 
928.271 6.47311e-07 
928.711 6.44478e-07 
929.15 6.4202e-07 
929.59 6.39887e-07 
930.029 6.38039e-07 
930.469 6.36438e-07 
930.908 6.35056e-07 
931.348 6.33867e-07 
931.787 6.32847e-07 
932.227 6.3198e-07 
932.666 6.31247e-07 
933.105 6.30635e-07 
933.545 6.3013e-07 
933.984 6.29723e-07 
934.424 6.29403e-07 
934.863 6.29163e-07 
935.303 6.28994e-07 
935.742 6.2889e-07 
936.182 6.28845e-07 
936.621 6.28854e-07 
937.061 6.28912e-07 
937.5 6.29014e-07 
937.939 6.29159e-07 
938.379 6.29341e-07 
938.818 6.29558e-07 
939.258 6.29807e-07 
939.697 6.30086e-07 
940.137 6.30392e-07 
940.576 6.30723e-07 
941.016 6.31077e-07 
941.455 6.31453e-07 
941.895 6.31848e-07 
942.334 6.32262e-07 
942.773 6.32694e-07 
943.213 6.33141e-07 
943.652 6.33602e-07 
944.092 6.34078e-07 
944.531 6.34566e-07 
944.971 6.35065e-07 
945.41 6.35576e-07 
945.85 6.36097e-07 
946.289 6.36627e-07 
946.729 6.37165e-07 
947.168 6.37712e-07 
947.607 6.38266e-07 
948.047 6.38827e-07 
948.486 6.39393e-07 
948.926 6.39966e-07 
949.365 6.40544e-07 
949.805 6.41126e-07 
950.244 6.41712e-07 
950.684 6.42303e-07 
951.123 6.42897e-07 
951.562 6.43495e-07 
952.002 6.44095e-07 
952.441 6.44697e-07 
952.881 6.45302e-07 
953.32 6.45909e-07 
953.76 6.46517e-07 
954.199 6.47127e-07 
954.639 6.47738e-07 
955.078 6.4835e-07 
955.518 6.48963e-07 
955.957 6.49577e-07 
956.396 6.50191e-07 
956.836 6.50806e-07 
957.275 6.51422e-07 
957.715 6.52038e-07 
958.154 6.52656e-07 
958.594 6.53274e-07 
959.033 6.53893e-07 
959.473 6.54513e-07 
959.912 6.55136e-07 
960.352 6.55759e-07 
960.791 6.56386e-07 
961.23 6.57015e-07 
961.67 6.57649e-07 
962.109 6.58286e-07 
962.549 6.58929e-07 
962.988 6.59579e-07 
963.428 6.60236e-07 
963.867 6.60903e-07 
964.307 6.61581e-07 
964.746 6.62272e-07 
965.186 6.62979e-07 
965.625 6.63705e-07 
966.064 6.64451e-07 
966.504 6.65223e-07 
966.943 6.66025e-07 
967.383 6.66862e-07 
967.822 6.6774e-07 
968.262 6.68666e-07 
968.701 6.69649e-07 
969.141 6.70698e-07 
969.58 6.71826e-07 
970.02 6.73046e-07 
970.459 6.74378e-07 
970.898 6.7584e-07 
971.338 6.77458e-07 
971.777 6.79262e-07 
972.217 6.81291e-07 
972.656 6.8359e-07 
973.096 6.86216e-07 
973.535 6.89238e-07 
973.975 6.92741e-07 
974.414 6.96829e-07 
974.854 7.01625e-07 
975.293 7.07275e-07 
975.732 7.13938e-07 
976.172 7.21771e-07 
976.611 7.30898e-07 
977.051 7.4133e-07 
977.49 7.5286e-07 
977.93 7.64907e-07 
978.369 7.76393e-07 
978.809 7.85774e-07 
979.248 7.91393e-07 
979.688 7.92107e-07 
980.127 7.87832e-07 
980.566 7.7959e-07 
981.006 7.69004e-07 
981.445 7.5766e-07 
981.885 7.4671e-07 
982.324 7.36801e-07 
982.764 7.28188e-07 
983.203 7.20882e-07 
983.643 7.14774e-07 
984.082 7.0971e-07 
984.521 7.05531e-07 
984.961 7.0209e-07 
985.4 6.99262e-07 
985.84 6.96942e-07 
986.279 6.95044e-07 
986.719 6.93499e-07 
987.158 6.92249e-07 
987.598 6.91251e-07 
988.037 6.90469e-07 
988.477 6.89874e-07 
988.916 6.89443e-07 
989.355 6.8916e-07 
989.795 6.89012e-07 
990.234 6.88989e-07 
990.674 6.89085e-07 
991.113 6.89298e-07 
991.553 6.89626e-07 
991.992 6.90073e-07 
992.432 6.90643e-07 
992.871 6.91346e-07 
993.311 6.92191e-07 
993.75 6.93195e-07 
994.189 6.94376e-07 
994.629 6.95759e-07 
995.068 6.97373e-07 
995.508 6.99255e-07 
995.947 7.01451e-07 
996.387 7.04016e-07 
996.826 7.07021e-07 
997.266 7.10549e-07 
997.705 7.14707e-07 
998.145 7.19624e-07 
998.584 7.2546e-07 
999.023 7.32406e-07 
999.463 7.40694e-07 
999.902 7.5059e-07 
1000.34 7.62381e-07 
1000.78 7.76342e-07 
1001.22 7.92653e-07 
1001.66 8.11262e-07 
1002.1 8.31657e-07 
1002.54 8.52595e-07 
1002.98 8.71919e-07 
1003.42 8.86743e-07 
1003.86 8.94221e-07 
1004.3 8.92715e-07 
1004.74 8.82603e-07 
1005.18 8.66081e-07 
1005.62 8.46128e-07 
1006.05 8.25425e-07 
1006.49 8.05801e-07 
1006.93 7.88211e-07 
1007.37 7.72977e-07 
1007.81 7.60048e-07 
1008.25 7.49199e-07 
1008.69 7.40145e-07 
1009.13 7.32604e-07 
1009.57 7.26321e-07 
1010.01 7.2108e-07 
1010.45 7.167e-07 
1010.89 7.13031e-07 
1011.33 7.09951e-07 
1011.77 7.07364e-07 
1012.21 7.05188e-07 
1012.65 7.03359e-07 
1013.09 7.01821e-07 
1013.53 7.00532e-07 
1013.96 6.99455e-07 
1014.4 6.9856e-07 
1014.84 6.97822e-07 
1015.28 6.97219e-07 
1015.72 6.96734e-07 
1016.16 6.96351e-07 
1016.6 6.96059e-07 
1017.04 6.95846e-07 
1017.48 6.95703e-07 
1017.92 6.95622e-07 
1018.36 6.95595e-07 
1018.8 6.95618e-07 
1019.24 6.95684e-07 
1019.68 6.9579e-07 
1020.12 6.95929e-07 
1020.56 6.96101e-07 
1021 6.96301e-07 
1021.44 6.96527e-07 
1021.88 6.96775e-07 
1022.31 6.97045e-07 
