#energy geo_1 
400 1.02057e-06 
400.53 1.02111e-06 
401.061 1.02165e-06 
401.591 1.0222e-06 
402.121 1.02275e-06 
402.651 1.0233e-06 
403.182 1.02385e-06 
403.712 1.02441e-06 
404.242 1.02496e-06 
404.772 1.02552e-06 
405.303 1.02608e-06 
405.833 1.02665e-06 
406.363 1.02721e-06 
406.894 1.02778e-06 
407.424 1.02835e-06 
407.954 1.02893e-06 
408.484 1.0295e-06 
409.015 1.03008e-06 
409.545 1.03066e-06 
410.075 1.03124e-06 
410.605 1.03183e-06 
411.136 1.03242e-06 
411.666 1.03301e-06 
412.196 1.0336e-06 
412.727 1.0342e-06 
413.257 1.0348e-06 
413.787 1.0354e-06 
414.317 1.036e-06 
414.848 1.03661e-06 
415.378 1.03722e-06 
415.908 1.03783e-06 
416.438 1.03845e-06 
416.969 1.03907e-06 
417.499 1.03969e-06 
418.029 1.04031e-06 
418.56 1.04094e-06 
419.09 1.04157e-06 
419.62 1.0422e-06 
420.15 1.04283e-06 
420.681 1.04347e-06 
421.211 1.04412e-06 
421.741 1.04476e-06 
422.271 1.04541e-06 
422.802 1.04606e-06 
423.332 1.04671e-06 
423.862 1.04737e-06 
424.393 1.04803e-06 
424.923 1.04869e-06 
425.453 1.04936e-06 
425.983 1.05002e-06 
426.514 1.0507e-06 
427.044 1.05137e-06 
427.574 1.05205e-06 
428.104 1.05273e-06 
428.635 1.05341e-06 
429.165 1.0541e-06 
429.695 1.05479e-06 
430.226 1.05548e-06 
430.756 1.05617e-06 
431.286 1.05687e-06 
431.816 1.05757e-06 
432.347 1.05827e-06 
432.877 1.05898e-06 
433.407 1.05968e-06 
433.938 1.06039e-06 
434.468 1.0611e-06 
434.998 1.06181e-06 
435.528 1.06253e-06 
436.059 1.06324e-06 
436.589 1.06396e-06 
437.119 1.06468e-06 
437.649 1.0654e-06 
438.18 1.06611e-06 
438.71 1.06683e-06 
439.24 1.06755e-06 
439.771 1.06827e-06 
440.301 1.06899e-06 
440.831 1.06971e-06 
441.361 1.07043e-06 
441.892 1.07114e-06 
442.422 1.07185e-06 
442.952 1.07257e-06 
443.482 1.07327e-06 
444.013 1.07398e-06 
444.543 1.07468e-06 
445.073 1.07538e-06 
445.604 1.07607e-06 
446.134 1.07676e-06 
446.664 1.07744e-06 
447.194 1.07812e-06 
447.725 1.07879e-06 
448.255 1.07946e-06 
448.785 1.08011e-06 
449.315 1.08076e-06 
449.846 1.08141e-06 
450.376 1.08204e-06 
450.906 1.08267e-06 
451.437 1.08328e-06 
451.967 1.08389e-06 
452.497 1.08449e-06 
453.027 1.08508e-06 
453.558 1.08566e-06 
454.088 1.08623e-06 
454.618 1.08679e-06 
455.148 1.08734e-06 
455.679 1.08789e-06 
456.209 1.08843e-06 
456.739 1.08897e-06 
457.27 1.0895e-06 
457.8 1.09004e-06 
458.33 1.09057e-06 
458.86 1.09111e-06 
459.391 1.09167e-06 
459.921 1.09223e-06 
460.451 1.09281e-06 
460.981 1.09343e-06 
461.512 1.09407e-06 
462.042 1.09476e-06 
462.572 1.09551e-06 
463.103 1.09633e-06 
463.633 1.09724e-06 
464.163 1.09825e-06 
464.693 1.0994e-06 
465.224 1.10071e-06 
465.754 1.10223e-06 
466.284 1.10398e-06 
466.814 1.10604e-06 
467.345 1.10847e-06 
467.875 1.11135e-06 
468.405 1.11479e-06 
468.936 1.11893e-06 
469.466 1.12394e-06 
469.996 1.13003e-06 
470.526 1.13748e-06 
471.057 1.14666e-06 
471.587 1.15801e-06 
472.117 1.17213e-06 
472.647 1.18973e-06 
473.178 1.21165e-06 
473.708 1.23878e-06 
474.238 1.27179e-06 
474.769 1.3106e-06 
475.299 1.3534e-06 
475.829 1.39546e-06 
476.359 1.42872e-06 
476.89 1.4441e-06 
477.42 1.43637e-06 
477.95 1.40792e-06 
478.48 1.3669e-06 
479.011 1.32221e-06 
479.541 1.27999e-06 
480.071 1.24316e-06 
480.602 1.21238e-06 
481.132 1.18723e-06 
481.662 1.16692e-06 
482.192 1.15059e-06 
482.723 1.1375e-06 
483.253 1.12706e-06 
483.783 1.11881e-06 
484.313 1.1124e-06 
484.844 1.1076e-06 
485.374 1.10424e-06 
485.904 1.10223e-06 
486.435 1.10155e-06 
486.965 1.10222e-06 
487.495 1.10435e-06 
488.025 1.10809e-06 
488.556 1.11369e-06 
489.086 1.12146e-06 
489.616 1.13185e-06 
490.146 1.14544e-06 
490.677 1.16301e-06 
491.207 1.18552e-06 
491.737 1.21425e-06 
492.268 1.25074e-06 
492.798 1.29677e-06 
493.328 1.35414e-06 
493.858 1.424e-06 
494.389 1.50557e-06 
494.919 1.59387e-06 
495.449 1.6774e-06 
495.979 1.73824e-06 
496.51 1.75836e-06 
497.04 1.73022e-06 
497.57 1.66219e-06 
498.101 1.57248e-06 
498.631 1.47867e-06 
499.161 1.39193e-06 
499.691 1.31706e-06 
500.222 1.25479e-06 
500.752 1.20398e-06 
501.282 1.16288e-06 
501.812 1.12977e-06 
502.343 1.10317e-06 
502.873 1.08191e-06 
503.403 1.06508e-06 
503.934 1.05201e-06 
504.464 1.04224e-06 
504.994 1.03547e-06 
505.524 1.03153e-06 
506.055 1.03039e-06 
506.585 1.03213e-06 
507.115 1.03696e-06 
507.646 1.04523e-06 
508.176 1.05746e-06 
508.706 1.07434e-06 
509.236 1.0968e-06 
509.767 1.1261e-06 
510.297 1.16384e-06 
510.827 1.21212e-06 
511.357 1.27357e-06 
511.888 1.35141e-06 
512.418 1.44926e-06 
512.948 1.57055e-06 
513.479 1.717e-06 
514.009 1.8855e-06 
514.539 2.06348e-06 
515.069 2.22462e-06 
515.6 2.33154e-06 
516.13 2.35119e-06 
516.66 2.27565e-06 
517.19 2.12771e-06 
517.721 1.945e-06 
518.251 1.76017e-06 
518.781 1.59232e-06 
519.312 1.44874e-06 
519.842 1.3297e-06 
520.372 1.23239e-06 
520.902 1.15319e-06 
521.433 1.0886e-06 
521.963 1.03568e-06 
522.493 9.92019e-07 
523.023 9.55737e-07 
523.554 9.2535e-07 
524.084 8.99706e-07 
524.614 8.77904e-07 
525.145 8.59238e-07 
525.675 8.4315e-07 
526.205 8.29198e-07 
526.735 8.17026e-07 
527.266 8.06351e-07 
527.796 7.96941e-07 
528.326 7.88606e-07 
528.856 7.81191e-07 
529.387 7.74568e-07 
529.917 7.68629e-07 
530.447 7.63286e-07 
530.978 7.58461e-07 
531.508 7.54092e-07 
532.038 7.50123e-07 
532.568 7.46509e-07 
533.099 7.4321e-07 
533.629 7.40191e-07 
534.159 7.37422e-07 
534.689 7.34877e-07 
535.22 7.32534e-07 
535.75 7.30373e-07 
536.28 7.28376e-07 
536.811 7.26528e-07 
537.341 7.24816e-07 
537.871 7.23227e-07 
538.401 7.21751e-07 
538.932 7.20378e-07 
539.462 7.191e-07 
539.992 7.17908e-07 
540.522 7.16797e-07 
541.053 7.1576e-07 
541.583 7.1479e-07 
542.113 7.13884e-07 
542.644 7.13036e-07 
543.174 7.12243e-07 
543.704 7.115e-07 
544.234 7.10805e-07 
544.765 7.10153e-07 
545.295 7.09542e-07 
545.825 7.08969e-07 
546.355 7.08433e-07 
546.886 7.0793e-07 
547.416 7.07458e-07 
547.946 7.07017e-07 
548.477 7.06604e-07 
549.007 7.06216e-07 
549.537 7.05854e-07 
550.067 7.05515e-07 
550.598 7.05198e-07 
551.128 7.04903e-07 
551.658 7.04627e-07 
552.188 7.0437e-07 
552.719 7.0413e-07 
553.249 7.03908e-07 
553.779 7.03701e-07 
554.31 7.03511e-07 
554.84 7.03334e-07 
555.37 7.03171e-07 
555.9 7.03021e-07 
556.431 7.02885e-07 
556.961 7.0276e-07 
557.491 7.02646e-07 
558.021 7.02544e-07 
558.552 7.02452e-07 
559.082 7.0237e-07 
559.612 7.02298e-07 
560.143 7.02235e-07 
560.673 7.02181e-07 
561.203 7.02135e-07 
561.733 7.02097e-07 
562.264 7.02067e-07 
562.794 7.02045e-07 
563.324 7.0203e-07 
563.854 7.02022e-07 
564.385 7.0202e-07 
564.915 7.02026e-07 
565.445 7.02037e-07 
565.976 7.02054e-07 
566.506 7.02078e-07 
567.036 7.02106e-07 
567.566 7.0214e-07 
568.097 7.02179e-07 
568.627 7.02223e-07 
569.157 7.02273e-07 
569.688 7.02327e-07 
570.218 7.02385e-07 
570.748 7.02448e-07 
571.278 7.02515e-07 
571.809 7.02586e-07 
572.339 7.02662e-07 
572.869 7.02741e-07 
573.399 7.02824e-07 
573.93 7.02911e-07 
574.46 7.03001e-07 
574.99 7.03095e-07 
575.521 7.03192e-07 
576.051 7.03293e-07 
576.581 7.03396e-07 
577.111 7.03503e-07 
577.642 7.03613e-07 
578.172 7.03726e-07 
578.702 7.03841e-07 
579.232 7.0396e-07 
579.763 7.04081e-07 
580.293 7.04205e-07 
580.823 7.04331e-07 
581.354 7.0446e-07 
581.884 7.04592e-07 
582.414 7.04726e-07 
582.944 7.04862e-07 
583.475 7.05001e-07 
584.005 7.05142e-07 
584.535 7.05285e-07 
585.065 7.0543e-07 
585.596 7.05577e-07 
586.126 7.05727e-07 
586.656 7.05878e-07 
587.187 7.06032e-07 
587.717 7.06187e-07 
588.247 7.06344e-07 
588.777 7.06504e-07 
589.308 7.06665e-07 
589.838 7.06828e-07 
590.368 7.06992e-07 
590.898 7.07159e-07 
591.429 7.07327e-07 
591.959 7.07497e-07 
592.489 7.07668e-07 
593.02 7.07841e-07 
593.55 7.08015e-07 
594.08 7.08192e-07 
594.61 7.08369e-07 
595.141 7.08549e-07 
595.671 7.0873e-07 
596.201 7.08912e-07 
596.731 7.09096e-07 
597.262 7.09281e-07 
597.792 7.09467e-07 
598.322 7.09655e-07 
598.853 7.09844e-07 
599.383 7.10034e-07 
599.913 7.10226e-07 
600.443 7.10419e-07 
600.974 7.10614e-07 
601.504 7.1081e-07 
602.034 7.11007e-07 
602.564 7.11205e-07 
603.095 7.11405e-07 
603.625 7.11605e-07 
604.155 7.11806e-07 
604.686 7.1201e-07 
605.216 7.12214e-07 
605.746 7.12419e-07 
606.276 7.12626e-07 
606.807 7.12834e-07 
607.337 7.13043e-07 
607.867 7.13252e-07 
608.397 7.13464e-07 
608.928 7.13676e-07 
609.458 7.13888e-07 
609.988 7.14102e-07 
610.519 7.14318e-07 
611.049 7.14534e-07 
611.579 7.14751e-07 
612.109 7.14969e-07 
612.64 7.15189e-07 
613.17 7.15409e-07 
613.7 7.1563e-07 
614.23 7.15852e-07 
614.761 7.16075e-07 
615.291 7.16299e-07 
615.821 7.16525e-07 
616.352 7.16751e-07 
616.882 7.16978e-07 
617.412 7.17206e-07 
617.942 7.17435e-07 
618.473 7.17665e-07 
619.003 7.17895e-07 
619.533 7.18127e-07 
620.063 7.18359e-07 
620.594 7.18593e-07 
621.124 7.18828e-07 
621.654 7.19062e-07 
622.185 7.19298e-07 
622.715 7.19536e-07 
623.245 7.19773e-07 
623.775 7.20013e-07 
624.306 7.20252e-07 
624.836 7.20493e-07 
625.366 7.20734e-07 
625.896 7.20976e-07 
626.427 7.21219e-07 
626.957 7.21463e-07 
627.487 7.21707e-07 
628.018 7.21953e-07 
628.548 7.22199e-07 
629.078 7.22447e-07 
629.608 7.22695e-07 
630.139 7.22943e-07 
630.669 7.23193e-07 
631.199 7.23443e-07 
631.729 7.23694e-07 
632.26 7.23946e-07 
632.79 7.24199e-07 
633.32 7.24453e-07 
633.851 7.24707e-07 
634.381 7.24962e-07 
634.911 7.25218e-07 
635.441 7.25475e-07 
635.972 7.25733e-07 
636.502 7.25991e-07 
637.032 7.2625e-07 
637.562 7.2651e-07 
638.093 7.26771e-07 
638.623 7.27033e-07 
639.153 7.27295e-07 
639.684 7.27558e-07 
640.214 7.27822e-07 
640.744 7.28086e-07 
641.274 7.28351e-07 
641.805 7.28617e-07 
642.335 7.28884e-07 
642.865 7.29151e-07 
643.396 7.2942e-07 
643.926 7.29689e-07 
644.456 7.29959e-07 
644.986 7.3023e-07 
645.517 7.30501e-07 
646.047 7.30773e-07 
646.577 7.31046e-07 
647.107 7.3132e-07 
647.638 7.31594e-07 
648.168 7.3187e-07 
648.698 7.32145e-07 
649.229 7.32423e-07 
649.759 7.327e-07 
650.289 7.32978e-07 
650.819 7.33256e-07 
651.35 7.33536e-07 
651.88 7.33816e-07 
652.41 7.34098e-07 
652.94 7.34379e-07 
653.471 7.34662e-07 
654.001 7.34945e-07 
654.531 7.35229e-07 
655.062 7.35514e-07 
655.592 7.358e-07 
656.122 7.36086e-07 
656.652 7.36373e-07 
657.183 7.36661e-07 
657.713 7.3695e-07 
658.243 7.37239e-07 
658.773 7.37529e-07 
659.304 7.3782e-07 
659.834 7.38112e-07 
660.364 7.38404e-07 
660.895 7.38697e-07 
661.425 7.3899e-07 
661.955 7.39285e-07 
662.485 7.3958e-07 
663.016 7.39876e-07 
663.546 7.40173e-07 
664.076 7.4047e-07 
664.606 7.40768e-07 
665.137 7.41067e-07 
665.667 7.41367e-07 
666.197 7.41668e-07 
666.728 7.41969e-07 
667.258 7.42271e-07 
667.788 7.42574e-07 
668.318 7.42877e-07 
668.849 7.43182e-07 
669.379 7.43486e-07 
669.909 7.43792e-07 
670.439 7.44098e-07 
670.97 7.44405e-07 
671.5 7.44713e-07 
672.03 7.45022e-07 
672.561 7.45332e-07 
673.091 7.45642e-07 
673.621 7.45953e-07 
674.151 7.46265e-07 
674.682 7.46578e-07 
675.212 7.46891e-07 
675.742 7.47205e-07 
676.272 7.4752e-07 
676.803 7.47836e-07 
677.333 7.48151e-07 
677.863 7.48469e-07 
678.394 7.48786e-07 
678.924 7.49105e-07 
679.454 7.49424e-07 
679.984 7.49744e-07 
680.515 7.50065e-07 
681.045 7.50387e-07 
681.575 7.50709e-07 
682.105 7.51032e-07 
682.636 7.51356e-07 
683.166 7.51681e-07 
683.696 7.52007e-07 
684.227 7.52333e-07 
684.757 7.52661e-07 
685.287 7.52989e-07 
685.817 7.53318e-07 
686.348 7.53647e-07 
686.878 7.53978e-07 
687.408 7.54309e-07 
687.938 7.54641e-07 
688.469 7.54973e-07 
688.999 7.55307e-07 
689.529 7.55641e-07 
690.06 7.55976e-07 
690.59 7.56312e-07 
691.12 7.56649e-07 
691.65 7.56986e-07 
692.181 7.57324e-07 
692.711 7.57663e-07 
693.241 7.58004e-07 
693.771 7.58344e-07 
694.302 7.58686e-07 
694.832 7.59028e-07 
695.362 7.59371e-07 
695.893 7.59715e-07 
696.423 7.6006e-07 
696.953 7.60406e-07 
697.483 7.60753e-07 
698.014 7.611e-07 
698.544 7.61448e-07 
699.074 7.61796e-07 
699.604 7.62147e-07 
700.135 7.62497e-07 
700.665 7.62849e-07 
701.195 7.63201e-07 
701.726 7.63555e-07 
702.256 7.63909e-07 
702.786 7.64263e-07 
703.316 7.64619e-07 
703.847 7.64976e-07 
704.377 7.65334e-07 
704.907 7.65691e-07 
705.438 7.66051e-07 
705.968 7.6641e-07 
706.498 7.66772e-07 
707.028 7.67133e-07 
707.559 7.67495e-07 
708.089 7.67859e-07 
708.619 7.68223e-07 
709.149 7.68589e-07 
709.68 7.68955e-07 
710.21 7.69322e-07 
710.74 7.69691e-07 
711.271 7.70059e-07 
711.801 7.70429e-07 
712.331 7.70799e-07 
712.861 7.71171e-07 
713.392 7.71543e-07 
713.922 7.71917e-07 
714.452 7.72291e-07 
714.982 7.72666e-07 
715.513 7.73042e-07 
716.043 7.73419e-07 
716.573 7.73797e-07 
717.104 7.74175e-07 
717.634 7.74555e-07 
718.164 7.74936e-07 
718.694 7.75317e-07 
719.225 7.757e-07 
719.755 7.76083e-07 
720.285 7.76468e-07 
720.815 7.76853e-07 
721.346 7.77239e-07 
721.876 7.77627e-07 
722.406 7.78015e-07 
722.937 7.78404e-07 
723.467 7.78794e-07 
723.997 7.79184e-07 
724.527 7.79577e-07 
725.058 7.7997e-07 
725.588 7.80364e-07 
726.118 7.80759e-07 
726.648 7.81155e-07 
727.179 7.81551e-07 
727.709 7.8195e-07 
728.239 7.82349e-07 
728.77 7.82748e-07 
729.3 7.83149e-07 
729.83 7.83551e-07 
730.36 7.83954e-07 
730.891 7.84358e-07 
731.421 7.84763e-07 
731.951 7.85169e-07 
732.481 7.85576e-07 
733.012 7.85984e-07 
733.542 7.86393e-07 
734.072 7.86803e-07 
734.603 7.87214e-07 
735.133 7.87626e-07 
735.663 7.88038e-07 
736.193 7.88453e-07 
736.724 7.88868e-07 
737.254 7.89284e-07 
737.784 7.89702e-07 
738.314 7.9012e-07 
738.845 7.9054e-07 
739.375 7.9096e-07 
739.905 7.91382e-07 
740.436 7.91805e-07 
740.966 7.92229e-07 
741.496 7.92654e-07 
742.026 7.9308e-07 
742.557 7.93507e-07 
743.087 7.93935e-07 
743.617 7.94364e-07 
744.147 7.94795e-07 
744.678 7.95226e-07 
745.208 7.95659e-07 
745.738 7.96093e-07 
746.269 7.96528e-07 
746.799 7.96964e-07 
747.329 7.97401e-07 
747.859 7.97839e-07 
748.39 7.98279e-07 
748.92 7.98719e-07 
749.45 7.9916e-07 
749.98 7.99604e-07 
750.511 8.00049e-07 
751.041 8.00494e-07 
751.571 8.0094e-07 
752.102 8.01388e-07 
752.632 8.01838e-07 
753.162 8.02287e-07 
753.692 8.02739e-07 
754.223 8.03191e-07 
754.753 8.03645e-07 
755.283 8.04099e-07 
755.813 8.04556e-07 
756.344 8.05013e-07 
756.874 8.05472e-07 
757.404 8.05932e-07 
757.935 8.06393e-07 
758.465 8.06855e-07 
758.995 8.07319e-07 
759.525 8.07784e-07 
760.056 8.0825e-07 
760.586 8.08718e-07 
761.116 8.09186e-07 
761.646 8.09656e-07 
762.177 8.10128e-07 
762.707 8.106e-07 
763.237 8.11075e-07 
763.768 8.1155e-07 
764.298 8.12027e-07 
764.828 8.12504e-07 
765.358 8.12984e-07 
765.889 8.13464e-07 
766.419 8.13946e-07 
766.949 8.1443e-07 
767.479 8.14915e-07 
768.01 8.15401e-07 
768.54 8.15887e-07 
769.07 8.16377e-07 
769.601 8.16866e-07 
770.131 8.17358e-07 
770.661 8.17851e-07 
771.191 8.18345e-07 
771.722 8.18841e-07 
772.252 8.19339e-07 
772.782 8.19837e-07 
773.312 8.20338e-07 
773.843 8.20839e-07 
774.373 8.21342e-07 
774.903 8.21847e-07 
775.434 8.22353e-07 
775.964 8.2286e-07 
776.494 8.23369e-07 
777.024 8.23879e-07 
777.555 8.24392e-07 
778.085 8.24905e-07 
778.615 8.25419e-07 
779.146 8.25936e-07 
779.676 8.26454e-07 
780.206 8.26973e-07 
780.736 8.27495e-07 
781.267 8.28017e-07 
781.797 8.28542e-07 
782.327 8.29068e-07 
782.857 8.29594e-07 
783.388 8.30124e-07 
783.918 8.30655e-07 
784.448 8.31187e-07 
784.979 8.31721e-07 
785.509 8.32256e-07 
786.039 8.32793e-07 
786.569 8.33332e-07 
787.1 8.33873e-07 
787.63 8.34415e-07 
788.16 8.34959e-07 
788.69 8.35504e-07 
789.221 8.36051e-07 
789.751 8.366e-07 
790.281 8.37151e-07 
790.812 8.37702e-07 
791.342 8.38257e-07 
791.872 8.38813e-07 
792.402 8.39371e-07 
792.933 8.3993e-07 
793.463 8.40491e-07 
793.993 8.41054e-07 
794.523 8.41619e-07 
795.054 8.42186e-07 
795.584 8.42754e-07 
796.114 8.43324e-07 
796.645 8.43897e-07 
797.175 8.44471e-07 
797.705 8.45047e-07 
798.235 8.45624e-07 
798.766 8.46204e-07 
799.296 8.46785e-07 
799.826 8.47369e-07 
800.356 8.47954e-07 
800.887 8.48542e-07 
801.417 8.49131e-07 
801.947 8.49722e-07 
802.478 8.50315e-07 
803.008 8.50911e-07 
803.538 8.51508e-07 
804.068 8.52108e-07 
804.599 8.52709e-07 
805.129 8.53312e-07 
805.659 8.53918e-07 
806.189 8.54526e-07 
806.72 8.55135e-07 
807.25 8.55747e-07 
807.78 8.56361e-07 
808.311 8.56977e-07 
808.841 8.57595e-07 
809.371 8.58216e-07 
809.901 8.58838e-07 
810.432 8.59463e-07 
810.962 8.6009e-07 
811.492 8.60719e-07 
812.022 8.61352e-07 
812.553 8.61985e-07 
813.083 8.62621e-07 
813.613 8.63259e-07 
814.144 8.639e-07 
814.674 8.64543e-07 
815.204 8.65188e-07 
815.734 8.65836e-07 
816.265 8.66486e-07 
816.795 8.67138e-07 
817.325 8.67793e-07 
817.855 8.68451e-07 
818.386 8.69111e-07 
818.916 8.69773e-07 
819.446 8.70438e-07 
819.977 8.71105e-07 
820.507 8.71775e-07 
821.037 8.72447e-07 
821.567 8.73122e-07 
822.098 8.738e-07 
822.628 8.7448e-07 
823.158 8.75162e-07 
823.688 8.75848e-07 
824.219 8.76536e-07 
824.749 8.77226e-07 
825.279 8.7792e-07 
825.81 8.78617e-07 
826.34 8.79316e-07 
826.87 8.80017e-07 
827.4 8.80722e-07 
827.931 8.8143e-07 
828.461 8.8214e-07 
828.991 8.82853e-07 
829.521 8.83569e-07 
830.052 8.84288e-07 
830.582 8.8501e-07 
831.112 8.85735e-07 
831.643 8.86462e-07 
832.173 8.87193e-07 
832.703 8.87928e-07 
833.233 8.88664e-07 
833.764 8.89404e-07 
834.294 8.90148e-07 
834.824 8.90895e-07 
835.354 8.91644e-07 
835.885 8.92397e-07 
836.415 8.93154e-07 
836.945 8.93912e-07 
837.476 8.94675e-07 
838.006 8.9544e-07 
838.536 8.9621e-07 
839.066 8.96982e-07 
839.597 8.97758e-07 
840.127 8.98538e-07 
840.657 8.99321e-07 
841.188 9.00108e-07 
841.718 9.00898e-07 
842.248 9.01692e-07 
842.778 9.02489e-07 
843.309 9.0329e-07 
843.839 9.04095e-07 
844.369 9.04903e-07 
844.899 9.05715e-07 
845.43 9.06531e-07 
845.96 9.07351e-07 
846.49 9.08174e-07 
847.021 9.09001e-07 
847.551 9.09832e-07 
848.081 9.10669e-07 
848.611 9.11508e-07 
849.142 9.12351e-07 
849.672 9.13199e-07 
850.202 9.14051e-07 
850.732 9.14907e-07 
851.263 9.15767e-07 
851.793 9.16632e-07 
852.323 9.175e-07 
852.854 9.18373e-07 
853.384 9.1925e-07 
853.914 9.20133e-07 
854.444 9.2102e-07 
854.975 9.21911e-07 
855.505 9.22807e-07 
856.035 9.23707e-07 
856.565 9.24612e-07 
857.096 9.25522e-07 
857.626 9.26437e-07 
858.156 9.27356e-07 
858.687 9.28281e-07 
859.217 9.29211e-07 
859.747 9.30145e-07 
860.277 9.31085e-07 
860.808 9.3203e-07 
861.338 9.32981e-07 
861.868 9.33937e-07 
862.398 9.34897e-07 
862.929 9.35864e-07 
863.459 9.36836e-07 
863.989 9.37814e-07 
864.52 9.38797e-07 
865.05 9.39786e-07 
865.58 9.40782e-07 
866.11 9.41782e-07 
866.641 9.42788e-07 
867.171 9.43802e-07 
867.701 9.44822e-07 
868.231 9.45847e-07 
868.762 9.46879e-07 
869.292 9.47918e-07 
869.822 9.48962e-07 
870.353 9.50013e-07 
870.883 9.51072e-07 
871.413 9.52136e-07 
871.943 9.53209e-07 
872.474 9.54287e-07 
873.004 9.55373e-07 
873.534 9.56467e-07 
874.064 9.57568e-07 
874.595 9.58675e-07 
875.125 9.5979e-07 
875.655 9.60915e-07 
876.186 9.62045e-07 
876.716 9.63184e-07 
877.246 9.64331e-07 
877.776 9.65487e-07 
878.307 9.66649e-07 
878.837 9.6782e-07 
879.367 9.69e-07 
879.897 9.70188e-07 
880.428 9.71384e-07 
880.958 9.7259e-07 
881.488 9.73805e-07 
882.019 9.75027e-07 
882.549 9.76258e-07 
883.079 9.77499e-07 
883.609 9.78748e-07 
884.14 9.80005e-07 
884.67 9.81273e-07 
885.2 9.82549e-07 
885.73 9.83833e-07 
886.261 9.85126e-07 
886.791 9.86428e-07 
887.321 9.87739e-07 
887.852 9.89058e-07 
888.382 9.90385e-07 
888.912 9.91721e-07 
889.442 9.93065e-07 
889.973 9.94416e-07 
890.503 9.95774e-07 
891.033 9.9714e-07 
891.563 9.98511e-07 
892.094 9.99887e-07 
892.624 1.00127e-06 
893.154 1.00266e-06 
893.685 1.00405e-06 
894.215 1.00544e-06 
894.745 1.00684e-06 
895.275 1.00823e-06 
895.806 1.00963e-06 
896.336 1.01102e-06 
896.866 1.01242e-06 
897.396 1.01381e-06 
897.927 1.01519e-06 
898.457 1.01656e-06 
898.987 1.01793e-06 
899.518 1.01928e-06 
900.048 1.02062e-06 
900.578 1.02194e-06 
901.108 1.02324e-06 
901.639 1.02452e-06 
902.169 1.02577e-06 
902.699 1.02699e-06 
903.229 1.02818e-06 
903.76 1.02933e-06 
904.29 1.03044e-06 
904.82 1.0315e-06 
905.351 1.03251e-06 
905.881 1.03346e-06 
906.411 1.03435e-06 
906.941 1.03517e-06 
907.472 1.03592e-06 
908.002 1.03658e-06 
908.532 1.03715e-06 
909.062 1.03763e-06 
909.593 1.038e-06 
