#energy geo_1 
400 4.7067e-07 
400.53 4.70762e-07 
401.061 4.70854e-07 
401.591 4.70945e-07 
402.121 4.71037e-07 
402.651 4.71129e-07 
403.182 4.71221e-07 
403.712 4.71313e-07 
404.242 4.71405e-07 
404.772 4.71497e-07 
405.303 4.71589e-07 
405.833 4.71681e-07 
406.363 4.71774e-07 
406.894 4.71866e-07 
407.424 4.71958e-07 
407.954 4.7205e-07 
408.484 4.72143e-07 
409.015 4.72235e-07 
409.545 4.72327e-07 
410.075 4.7242e-07 
410.605 4.72512e-07 
411.136 4.72605e-07 
411.666 4.72697e-07 
412.196 4.7279e-07 
412.727 4.72882e-07 
413.257 4.72975e-07 
413.787 4.73067e-07 
414.317 4.7316e-07 
414.848 4.73252e-07 
415.378 4.73345e-07 
415.908 4.73438e-07 
416.438 4.7353e-07 
416.969 4.73623e-07 
417.499 4.73716e-07 
418.029 4.73809e-07 
418.56 4.73902e-07 
419.09 4.73995e-07 
419.62 4.74088e-07 
420.15 4.74181e-07 
420.681 4.74274e-07 
421.211 4.74367e-07 
421.741 4.7446e-07 
422.271 4.74553e-07 
422.802 4.74647e-07 
423.332 4.7474e-07 
423.862 4.74833e-07 
424.393 4.74926e-07 
424.923 4.75019e-07 
425.453 4.75113e-07 
425.983 4.75206e-07 
426.514 4.75299e-07 
427.044 4.75393e-07 
427.574 4.75487e-07 
428.104 4.7558e-07 
428.635 4.75673e-07 
429.165 4.75767e-07 
429.695 4.7586e-07 
430.226 4.75954e-07 
430.756 4.76047e-07 
431.286 4.76141e-07 
431.816 4.76235e-07 
432.347 4.76329e-07 
432.877 4.76422e-07 
433.407 4.76516e-07 
433.938 4.7661e-07 
434.468 4.76704e-07 
434.998 4.76798e-07 
435.528 4.76892e-07 
436.059 4.76986e-07 
436.589 4.7708e-07 
437.119 4.77174e-07 
437.649 4.77268e-07 
438.18 4.77362e-07 
438.71 4.77456e-07 
439.24 4.7755e-07 
439.771 4.77645e-07 
440.301 4.77739e-07 
440.831 4.77833e-07 
441.361 4.77927e-07 
441.892 4.78022e-07 
442.422 4.78116e-07 
442.952 4.78211e-07 
443.482 4.78305e-07 
444.013 4.784e-07 
444.543 4.78494e-07 
445.073 4.78589e-07 
445.604 4.78683e-07 
446.134 4.78778e-07 
446.664 4.78873e-07 
447.194 4.78968e-07 
447.725 4.79062e-07 
448.255 4.79157e-07 
448.785 4.79252e-07 
449.315 4.79347e-07 
449.846 4.79442e-07 
450.376 4.79537e-07 
450.906 4.79631e-07 
451.437 4.79726e-07 
451.967 4.79821e-07 
452.497 4.79916e-07 
453.027 4.80011e-07 
453.558 4.80106e-07 
454.088 4.80201e-07 
454.618 4.80296e-07 
455.148 4.80392e-07 
455.679 4.80487e-07 
456.209 4.80582e-07 
456.739 4.80677e-07 
457.27 4.80773e-07 
457.8 4.80868e-07 
458.33 4.80964e-07 
458.86 4.81059e-07 
459.391 4.81155e-07 
459.921 4.81251e-07 
460.451 4.81346e-07 
460.981 4.81442e-07 
461.512 4.81537e-07 
462.042 4.81633e-07 
462.572 4.81728e-07 
463.103 4.81824e-07 
463.633 4.8192e-07 
464.163 4.82016e-07 
464.693 4.82112e-07 
465.224 4.82208e-07 
465.754 4.82304e-07 
466.284 4.824e-07 
466.814 4.82496e-07 
467.345 4.82592e-07 
467.875 4.82688e-07 
468.405 4.82784e-07 
468.936 4.8288e-07 
469.466 4.82976e-07 
469.996 4.83072e-07 
470.526 4.83169e-07 
471.057 4.83265e-07 
471.587 4.83361e-07 
472.117 4.83458e-07 
472.647 4.83554e-07 
473.178 4.83651e-07 
473.708 4.83747e-07 
474.238 4.83844e-07 
474.769 4.8394e-07 
475.299 4.84037e-07 
475.829 4.84134e-07 
476.359 4.8423e-07 
476.89 4.84327e-07 
477.42 4.84424e-07 
477.95 4.8452e-07 
478.48 4.84617e-07 
479.011 4.84714e-07 
479.541 4.84811e-07 
480.071 4.84908e-07 
480.602 4.85005e-07 
481.132 4.85102e-07 
481.662 4.85199e-07 
482.192 4.85296e-07 
482.723 4.85393e-07 
483.253 4.8549e-07 
483.783 4.85588e-07 
484.313 4.85685e-07 
484.844 4.85782e-07 
485.374 4.85879e-07 
485.904 4.85977e-07 
486.435 4.86074e-07 
486.965 4.86172e-07 
487.495 4.86269e-07 
488.025 4.86367e-07 
488.556 4.86464e-07 
489.086 4.86562e-07 
489.616 4.86659e-07 
490.146 4.86757e-07 
490.677 4.86855e-07 
491.207 4.86953e-07 
491.737 4.8705e-07 
492.268 4.87148e-07 
492.798 4.87246e-07 
493.328 4.87344e-07 
493.858 4.87442e-07 
494.389 4.8754e-07 
494.919 4.87638e-07 
495.449 4.87736e-07 
495.979 4.87834e-07 
496.51 4.87933e-07 
497.04 4.88031e-07 
497.57 4.88129e-07 
498.101 4.88227e-07 
498.631 4.88326e-07 
499.161 4.88424e-07 
499.691 4.88522e-07 
500.222 4.88621e-07 
500.752 4.88719e-07 
501.282 4.88818e-07 
501.812 4.88916e-07 
502.343 4.89014e-07 
502.873 4.89113e-07 
503.403 4.89212e-07 
503.934 4.89311e-07 
504.464 4.8941e-07 
504.994 4.89508e-07 
505.524 4.89607e-07 
506.055 4.89706e-07 
506.585 4.89805e-07 
507.115 4.89904e-07 
507.646 4.90003e-07 
508.176 4.90102e-07 
508.706 4.90202e-07 
509.236 4.90301e-07 
509.767 4.904e-07 
510.297 4.90499e-07 
510.827 4.90598e-07 
511.357 4.90697e-07 
511.888 4.90797e-07 
512.418 4.90896e-07 
512.948 4.90996e-07 
513.479 4.91095e-07 
514.009 4.91195e-07 
514.539 4.91294e-07 
515.069 4.91394e-07 
515.6 4.91494e-07 
516.13 4.91593e-07 
516.66 4.91693e-07 
517.19 4.91793e-07 
517.721 4.91893e-07 
518.251 4.91993e-07 
518.781 4.92093e-07 
519.312 4.92193e-07 
519.842 4.92293e-07 
520.372 4.92393e-07 
520.902 4.92493e-07 
521.433 4.92593e-07 
521.963 4.92693e-07 
522.493 4.92793e-07 
523.023 4.92894e-07 
523.554 4.92994e-07 
524.084 4.93094e-07 
524.614 4.93195e-07 
525.145 4.93295e-07 
525.675 4.93396e-07 
526.205 4.93496e-07 
526.735 4.93597e-07 
527.266 4.93698e-07 
527.796 4.93798e-07 
528.326 4.93899e-07 
528.856 4.94e-07 
529.387 4.94101e-07 
529.917 4.94202e-07 
530.447 4.94303e-07 
530.978 4.94404e-07 
531.508 4.94505e-07 
532.038 4.94606e-07 
532.568 4.94707e-07 
533.099 4.94808e-07 
533.629 4.94909e-07 
534.159 4.9501e-07 
534.689 4.95112e-07 
535.22 4.95213e-07 
535.75 4.95314e-07 
536.28 4.95416e-07 
536.811 4.95517e-07 
537.341 4.95619e-07 
537.871 4.9572e-07 
538.401 4.95822e-07 
538.932 4.95924e-07 
539.462 4.96025e-07 
539.992 4.96127e-07 
540.522 4.96229e-07 
541.053 4.96331e-07 
541.583 4.96433e-07 
542.113 4.96535e-07 
542.644 4.96637e-07 
543.174 4.96739e-07 
543.704 4.96841e-07 
544.234 4.96943e-07 
544.765 4.97046e-07 
545.295 4.97148e-07 
545.825 4.9725e-07 
546.355 4.97353e-07 
546.886 4.97455e-07 
547.416 4.97558e-07 
547.946 4.9766e-07 
548.477 4.97763e-07 
549.007 4.97866e-07 
549.537 4.97968e-07 
550.067 4.98071e-07 
550.598 4.98173e-07 
551.128 4.98276e-07 
551.658 4.98379e-07 
552.188 4.98482e-07 
552.719 4.98585e-07 
553.249 4.98688e-07 
553.779 4.98791e-07 
554.31 4.98894e-07 
554.84 4.98998e-07 
555.37 4.99101e-07 
555.9 4.99204e-07 
556.431 4.99307e-07 
556.961 4.99411e-07 
557.491 4.99514e-07 
558.021 4.99618e-07 
558.552 4.99721e-07 
559.082 4.99825e-07 
559.612 4.99929e-07 
560.143 5.00032e-07 
560.673 5.00136e-07 
561.203 5.0024e-07 
561.733 5.00344e-07 
562.264 5.00447e-07 
562.794 5.00551e-07 
563.324 5.00656e-07 
563.854 5.0076e-07 
564.385 5.00864e-07 
564.915 5.00968e-07 
565.445 5.01072e-07 
565.976 5.01177e-07 
566.506 5.01281e-07 
567.036 5.01386e-07 
567.566 5.0149e-07 
568.097 5.01594e-07 
568.627 5.01699e-07 
569.157 5.01804e-07 
569.688 5.01908e-07 
570.218 5.02013e-07 
570.748 5.02118e-07 
571.278 5.02223e-07 
571.809 5.02328e-07 
572.339 5.02433e-07 
572.869 5.02538e-07 
573.399 5.02643e-07 
573.93 5.02748e-07 
574.46 5.02853e-07 
574.99 5.02959e-07 
575.521 5.03064e-07 
576.051 5.03169e-07 
576.581 5.03275e-07 
577.111 5.0338e-07 
577.642 5.03486e-07 
578.172 5.03592e-07 
578.702 5.03697e-07 
579.232 5.03803e-07 
579.763 5.03909e-07 
580.293 5.04015e-07 
580.823 5.0412e-07 
581.354 5.04226e-07 
581.884 5.04332e-07 
582.414 5.04438e-07 
582.944 5.04544e-07 
583.475 5.04651e-07 
584.005 5.04757e-07 
584.535 5.04863e-07 
585.065 5.0497e-07 
585.596 5.05076e-07 
586.126 5.05183e-07 
586.656 5.05289e-07 
587.187 5.05396e-07 
587.717 5.05503e-07 
588.247 5.05609e-07 
588.777 5.05716e-07 
589.308 5.05823e-07 
589.838 5.0593e-07 
590.368 5.06037e-07 
590.898 5.06144e-07 
591.429 5.06251e-07 
591.959 5.06358e-07 
592.489 5.06465e-07 
593.02 5.06573e-07 
593.55 5.0668e-07 
594.08 5.06788e-07 
594.61 5.06895e-07 
595.141 5.07003e-07 
595.671 5.0711e-07 
596.201 5.07218e-07 
596.731 5.07326e-07 
597.262 5.07434e-07 
597.792 5.07542e-07 
598.322 5.07649e-07 
598.853 5.07758e-07 
599.383 5.07866e-07 
599.913 5.07974e-07 
600.443 5.08082e-07 
600.974 5.0819e-07 
601.504 5.08299e-07 
602.034 5.08407e-07 
602.564 5.08516e-07 
603.095 5.08624e-07 
603.625 5.08733e-07 
604.155 5.08842e-07 
604.686 5.0895e-07 
605.216 5.09059e-07 
605.746 5.09168e-07 
606.276 5.09277e-07 
606.807 5.09386e-07 
607.337 5.09495e-07 
607.867 5.09604e-07 
608.397 5.09713e-07 
608.928 5.09823e-07 
609.458 5.09932e-07 
609.988 5.10041e-07 
610.519 5.10151e-07 
611.049 5.1026e-07 
611.579 5.1037e-07 
612.109 5.1048e-07 
612.64 5.10589e-07 
613.17 5.10699e-07 
613.7 5.10809e-07 
614.23 5.10919e-07 
614.761 5.11029e-07 
615.291 5.11139e-07 
615.821 5.11249e-07 
616.352 5.11359e-07 
616.882 5.1147e-07 
617.412 5.1158e-07 
617.942 5.11691e-07 
618.473 5.11801e-07 
619.003 5.11912e-07 
619.533 5.12023e-07 
620.063 5.12133e-07 
620.594 5.12244e-07 
621.124 5.12355e-07 
621.654 5.12466e-07 
622.185 5.12577e-07 
622.715 5.12688e-07 
623.245 5.12799e-07 
623.775 5.12911e-07 
624.306 5.13022e-07 
624.836 5.13134e-07 
625.366 5.13245e-07 
625.896 5.13357e-07 
626.427 5.13469e-07 
626.957 5.13581e-07 
627.487 5.13692e-07 
628.018 5.13804e-07 
628.548 5.13916e-07 
629.078 5.14028e-07 
629.608 5.1414e-07 
630.139 5.14252e-07 
630.669 5.14364e-07 
631.199 5.14477e-07 
631.729 5.14589e-07 
632.26 5.14702e-07 
632.79 5.14814e-07 
633.32 5.14927e-07 
633.851 5.1504e-07 
634.381 5.15153e-07 
634.911 5.15265e-07 
635.441 5.15378e-07 
635.972 5.15491e-07 
636.502 5.15604e-07 
637.032 5.15717e-07 
637.562 5.15831e-07 
638.093 5.15944e-07 
638.623 5.16058e-07 
639.153 5.16171e-07 
639.684 5.16285e-07 
640.214 5.16399e-07 
640.744 5.16512e-07 
641.274 5.16626e-07 
641.805 5.1674e-07 
642.335 5.16854e-07 
642.865 5.16968e-07 
643.396 5.17082e-07 
643.926 5.17196e-07 
644.456 5.17311e-07 
644.986 5.17425e-07 
645.517 5.1754e-07 
646.047 5.17654e-07 
646.577 5.17769e-07 
647.107 5.17884e-07 
647.638 5.17999e-07 
648.168 5.18114e-07 
648.698 5.18229e-07 
649.229 5.18344e-07 
649.759 5.18459e-07 
650.289 5.18575e-07 
650.819 5.1869e-07 
651.35 5.18805e-07 
651.88 5.18921e-07 
652.41 5.19037e-07 
652.94 5.19152e-07 
653.471 5.19268e-07 
654.001 5.19384e-07 
654.531 5.195e-07 
655.062 5.19616e-07 
655.592 5.19732e-07 
656.122 5.19848e-07 
656.652 5.19965e-07 
657.183 5.20081e-07 
657.713 5.20197e-07 
658.243 5.20314e-07 
658.773 5.20431e-07 
659.304 5.20547e-07 
659.834 5.20664e-07 
660.364 5.20781e-07 
660.895 5.20899e-07 
661.425 5.21016e-07 
661.955 5.21133e-07 
662.485 5.2125e-07 
663.016 5.21368e-07 
663.546 5.21485e-07 
664.076 5.21603e-07 
664.606 5.2172e-07 
665.137 5.21838e-07 
665.667 5.21956e-07 
666.197 5.22074e-07 
666.728 5.22192e-07 
667.258 5.2231e-07 
667.788 5.22429e-07 
668.318 5.22547e-07 
668.849 5.22665e-07 
669.379 5.22784e-07 
669.909 5.22903e-07 
670.439 5.23021e-07 
670.97 5.2314e-07 
671.5 5.2326e-07 
672.03 5.23378e-07 
672.561 5.23497e-07 
673.091 5.23617e-07 
673.621 5.23736e-07 
674.151 5.23856e-07 
674.682 5.23975e-07 
675.212 5.24095e-07 
675.742 5.24214e-07 
676.272 5.24334e-07 
676.803 5.24454e-07 
677.333 5.24574e-07 
677.863 5.24694e-07 
678.394 5.24814e-07 
678.924 5.24935e-07 
679.454 5.25055e-07 
679.984 5.25176e-07 
680.515 5.25296e-07 
681.045 5.25417e-07 
681.575 5.25538e-07 
682.105 5.25659e-07 
682.636 5.2578e-07 
683.166 5.25901e-07 
683.696 5.26022e-07 
684.227 5.26144e-07 
684.757 5.26265e-07 
685.287 5.26386e-07 
685.817 5.26508e-07 
686.348 5.2663e-07 
686.878 5.26752e-07 
687.408 5.26874e-07 
687.938 5.26996e-07 
688.469 5.27118e-07 
688.999 5.27241e-07 
689.529 5.27363e-07 
690.06 5.27485e-07 
690.59 5.27608e-07 
691.12 5.27731e-07 
691.65 5.27854e-07 
692.181 5.27977e-07 
692.711 5.281e-07 
693.241 5.28223e-07 
693.771 5.28346e-07 
694.302 5.2847e-07 
694.832 5.28593e-07 
695.362 5.28717e-07 
695.893 5.28841e-07 
696.423 5.28965e-07 
696.953 5.29088e-07 
697.483 5.29213e-07 
698.014 5.29337e-07 
698.544 5.29461e-07 
699.074 5.29585e-07 
699.604 5.2971e-07 
700.135 5.29834e-07 
700.665 5.29959e-07 
701.195 5.30084e-07 
701.726 5.30209e-07 
702.256 5.30334e-07 
702.786 5.30459e-07 
703.316 5.30584e-07 
703.847 5.3071e-07 
704.377 5.30836e-07 
704.907 5.30961e-07 
705.438 5.31087e-07 
705.968 5.31213e-07 
706.498 5.31339e-07 
707.028 5.31466e-07 
707.559 5.31592e-07 
708.089 5.31718e-07 
708.619 5.31845e-07 
709.149 5.31971e-07 
709.68 5.32098e-07 
710.21 5.32225e-07 
710.74 5.32352e-07 
711.271 5.32479e-07 
711.801 5.32606e-07 
712.331 5.32733e-07 
712.861 5.32861e-07 
713.392 5.32988e-07 
713.922 5.33116e-07 
714.452 5.33244e-07 
714.982 5.33372e-07 
715.513 5.335e-07 
716.043 5.33629e-07 
716.573 5.33757e-07 
717.104 5.33885e-07 
717.634 5.34014e-07 
718.164 5.34143e-07 
718.694 5.34272e-07 
719.225 5.34401e-07 
719.755 5.3453e-07 
720.285 5.34659e-07 
720.815 5.34789e-07 
721.346 5.34918e-07 
721.876 5.35048e-07 
722.406 5.35177e-07 
722.937 5.35307e-07 
723.467 5.35438e-07 
723.997 5.35568e-07 
724.527 5.35698e-07 
725.058 5.35828e-07 
725.588 5.35959e-07 
726.118 5.3609e-07 
726.648 5.3622e-07 
727.179 5.36352e-07 
727.709 5.36483e-07 
728.239 5.36614e-07 
728.77 5.36746e-07 
729.3 5.36877e-07 
729.83 5.37008e-07 
730.36 5.3714e-07 
730.891 5.37272e-07 
731.421 5.37404e-07 
731.951 5.37537e-07 
732.481 5.37669e-07 
733.012 5.37801e-07 
733.542 5.37934e-07 
734.072 5.38066e-07 
734.603 5.38199e-07 
735.133 5.38332e-07 
735.663 5.38466e-07 
736.193 5.38599e-07 
736.724 5.38733e-07 
737.254 5.38866e-07 
737.784 5.39e-07 
738.314 5.39134e-07 
738.845 5.39268e-07 
739.375 5.39402e-07 
739.905 5.39537e-07 
740.436 5.39671e-07 
740.966 5.39805e-07 
741.496 5.3994e-07 
742.026 5.40075e-07 
742.557 5.4021e-07 
743.087 5.40346e-07 
743.617 5.40481e-07 
744.147 5.40617e-07 
744.678 5.40752e-07 
745.208 5.40888e-07 
745.738 5.41024e-07 
746.269 5.4116e-07 
746.799 5.41296e-07 
747.329 5.41433e-07 
747.859 5.4157e-07 
748.39 5.41706e-07 
748.92 5.41843e-07 
749.45 5.4198e-07 
749.98 5.42117e-07 
750.511 5.42255e-07 
751.041 5.42392e-07 
751.571 5.4253e-07 
752.102 5.42667e-07 
752.632 5.42806e-07 
753.162 5.42944e-07 
753.692 5.43082e-07 
754.223 5.4322e-07 
754.753 5.43359e-07 
755.283 5.43498e-07 
755.813 5.43637e-07 
756.344 5.43776e-07 
756.874 5.43915e-07 
757.404 5.44054e-07 
757.935 5.44194e-07 
758.465 5.44333e-07 
758.995 5.44474e-07 
759.525 5.44614e-07 
760.056 5.44754e-07 
760.586 5.44894e-07 
761.116 5.45035e-07 
761.646 5.45176e-07 
762.177 5.45316e-07 
762.707 5.45457e-07 
763.237 5.45599e-07 
763.768 5.4574e-07 
764.298 5.45882e-07 
764.828 5.46024e-07 
765.358 5.46165e-07 
765.889 5.46308e-07 
766.419 5.4645e-07 
766.949 5.46593e-07 
767.479 5.46735e-07 
768.01 5.46878e-07 
768.54 5.47021e-07 
769.07 5.47164e-07 
769.601 5.47307e-07 
770.131 5.47451e-07 
770.661 5.47595e-07 
771.191 5.47738e-07 
771.722 5.47882e-07 
772.252 5.48026e-07 
772.782 5.48171e-07 
773.312 5.48315e-07 
773.843 5.4846e-07 
774.373 5.48605e-07 
774.903 5.4875e-07 
775.434 5.48895e-07 
775.964 5.4904e-07 
776.494 5.49186e-07 
777.024 5.49332e-07 
777.555 5.49478e-07 
778.085 5.49624e-07 
778.615 5.49771e-07 
779.146 5.49917e-07 
779.676 5.50064e-07 
780.206 5.50211e-07 
780.736 5.50358e-07 
781.267 5.50505e-07 
781.797 5.50653e-07 
782.327 5.50801e-07 
782.857 5.50948e-07 
783.388 5.51096e-07 
783.918 5.51245e-07 
784.448 5.51393e-07 
784.979 5.51542e-07 
785.509 5.51691e-07 
786.039 5.5184e-07 
786.569 5.51989e-07 
787.1 5.52138e-07 
787.63 5.52288e-07 
788.16 5.52438e-07 
788.69 5.52588e-07 
789.221 5.52738e-07 
789.751 5.52889e-07 
790.281 5.53039e-07 
790.812 5.5319e-07 
791.342 5.53341e-07 
791.872 5.53493e-07 
792.402 5.53644e-07 
792.933 5.53796e-07 
793.463 5.53948e-07 
793.993 5.54099e-07 
794.523 5.54252e-07 
795.054 5.54404e-07 
795.584 5.54557e-07 
796.114 5.5471e-07 
796.645 5.54863e-07 
797.175 5.55016e-07 
797.705 5.5517e-07 
798.235 5.55324e-07 
798.766 5.55478e-07 
799.296 5.55632e-07 
799.826 5.55786e-07 
800.356 5.55941e-07 
800.887 5.56096e-07 
801.417 5.56251e-07 
801.947 5.56406e-07 
802.478 5.56562e-07 
803.008 5.56717e-07 
803.538 5.56873e-07 
804.068 5.57029e-07 
804.599 5.57185e-07 
805.129 5.57342e-07 
805.659 5.57499e-07 
806.189 5.57656e-07 
806.72 5.57813e-07 
807.25 5.57971e-07 
807.78 5.58128e-07 
808.311 5.58286e-07 
808.841 5.58445e-07 
809.371 5.58603e-07 
809.901 5.58762e-07 
810.432 5.58921e-07 
810.962 5.5908e-07 
811.492 5.59239e-07 
812.022 5.59398e-07 
812.553 5.59558e-07 
813.083 5.59718e-07 
813.613 5.59879e-07 
814.144 5.60039e-07 
814.674 5.602e-07 
815.204 5.60361e-07 
815.734 5.60522e-07 
816.265 5.60684e-07 
816.795 5.60846e-07 
817.325 5.61008e-07 
817.855 5.6117e-07 
818.386 5.61332e-07 
818.916 5.61495e-07 
819.446 5.61658e-07 
819.977 5.61821e-07 
820.507 5.61984e-07 
821.037 5.62148e-07 
821.567 5.62312e-07 
822.098 5.62476e-07 
822.628 5.62641e-07 
823.158 5.62805e-07 
823.688 5.6297e-07 
824.219 5.63135e-07 
824.749 5.63301e-07 
825.279 5.63467e-07 
825.81 5.63633e-07 
826.34 5.63799e-07 
826.87 5.63966e-07 
827.4 5.64133e-07 
827.931 5.643e-07 
828.461 5.64467e-07 
828.991 5.64635e-07 
829.521 5.64803e-07 
830.052 5.64971e-07 
830.582 5.65139e-07 
831.112 5.65308e-07 
831.643 5.65477e-07 
832.173 5.65646e-07 
832.703 5.65815e-07 
833.233 5.65985e-07 
833.764 5.66155e-07 
834.294 5.66326e-07 
834.824 5.66496e-07 
835.354 5.66667e-07 
835.885 5.66839e-07 
836.415 5.6701e-07 
836.945 5.67182e-07 
837.476 5.67354e-07 
838.006 5.67526e-07 
838.536 5.67698e-07 
839.066 5.67871e-07 
839.597 5.68045e-07 
840.127 5.68218e-07 
840.657 5.68392e-07 
841.188 5.68566e-07 
841.718 5.6874e-07 
842.248 5.68915e-07 
842.778 5.6909e-07 
843.309 5.69265e-07 
843.839 5.69441e-07 
844.369 5.69617e-07 
844.899 5.69793e-07 
845.43 5.69969e-07 
845.96 5.70146e-07 
846.49 5.70323e-07 
847.021 5.70501e-07 
847.551 5.70678e-07 
848.081 5.70856e-07 
848.611 5.71035e-07 
849.142 5.71213e-07 
849.672 5.71392e-07 
850.202 5.71572e-07 
850.732 5.71752e-07 
851.263 5.71932e-07 
851.793 5.72112e-07 
852.323 5.72292e-07 
852.854 5.72473e-07 
853.384 5.72654e-07 
853.914 5.72836e-07 
854.444 5.73018e-07 
854.975 5.732e-07 
855.505 5.73382e-07 
856.035 5.73565e-07 
856.565 5.73748e-07 
857.096 5.73932e-07 
857.626 5.74116e-07 
858.156 5.743e-07 
858.687 5.74485e-07 
859.217 5.7467e-07 
859.747 5.74855e-07 
860.277 5.75041e-07 
860.808 5.75227e-07 
861.338 5.75413e-07 
861.868 5.756e-07 
862.398 5.75787e-07 
862.929 5.75974e-07 
863.459 5.76162e-07 
863.989 5.7635e-07 
864.52 5.76539e-07 
865.05 5.76728e-07 
865.58 5.76917e-07 
866.11 5.77106e-07 
866.641 5.77296e-07 
867.171 5.77486e-07 
867.701 5.77677e-07 
868.231 5.77869e-07 
868.762 5.7806e-07 
869.292 5.78252e-07 
869.822 5.78444e-07 
870.353 5.78636e-07 
870.883 5.78829e-07 
871.413 5.79023e-07 
871.943 5.79217e-07 
872.474 5.79411e-07 
873.004 5.79605e-07 
873.534 5.798e-07 
874.064 5.79995e-07 
874.595 5.80191e-07 
875.125 5.80387e-07 
875.655 5.80584e-07 
876.186 5.80781e-07 
876.716 5.80978e-07 
877.246 5.81176e-07 
877.776 5.81374e-07 
878.307 5.81573e-07 
878.837 5.81771e-07 
879.367 5.81971e-07 
879.897 5.82171e-07 
880.428 5.82371e-07 
880.958 5.82572e-07 
881.488 5.82773e-07 
882.019 5.82974e-07 
882.549 5.83176e-07 
883.079 5.83379e-07 
883.609 5.83581e-07 
884.14 5.83785e-07 
884.67 5.83989e-07 
885.2 5.84193e-07 
885.73 5.84397e-07 
886.261 5.84603e-07 
886.791 5.84808e-07 
887.321 5.85014e-07 
887.852 5.8522e-07 
888.382 5.85427e-07 
888.912 5.85635e-07 
889.442 5.85842e-07 
889.973 5.86051e-07 
890.503 5.86259e-07 
891.033 5.86469e-07 
891.563 5.86678e-07 
892.094 5.86889e-07 
892.624 5.87099e-07 
893.154 5.8731e-07 
893.685 5.87522e-07 
894.215 5.87734e-07 
894.745 5.87947e-07 
895.275 5.8816e-07 
895.806 5.88374e-07 
896.336 5.88588e-07 
896.866 5.88802e-07 
897.396 5.89017e-07 
897.927 5.89233e-07 
898.457 5.89449e-07 
898.987 5.89665e-07 
899.518 5.89883e-07 
900.048 5.90101e-07 
900.578 5.90319e-07 
901.108 5.90538e-07 
901.639 5.90757e-07 
902.169 5.90977e-07 
902.699 5.91197e-07 
903.229 5.91418e-07 
903.76 5.91639e-07 
904.29 5.91862e-07 
904.82 5.92085e-07 
905.351 5.92307e-07 
905.881 5.92531e-07 
906.411 5.92756e-07 
906.941 5.9298e-07 
907.472 5.93206e-07 
908.002 5.93432e-07 
908.532 5.93658e-07 
909.062 5.93885e-07 
909.593 5.94113e-07 
