#energy geo_1 
400 1.22379e-06 
400.53 1.22431e-06 
401.061 1.22483e-06 
401.591 1.22536e-06 
402.121 1.22588e-06 
402.651 1.22641e-06 
403.182 1.22694e-06 
403.712 1.22747e-06 
404.242 1.228e-06 
404.772 1.22853e-06 
405.303 1.22907e-06 
405.833 1.2296e-06 
406.363 1.23014e-06 
406.894 1.23068e-06 
407.424 1.23123e-06 
407.954 1.23177e-06 
408.484 1.23232e-06 
409.015 1.23287e-06 
409.545 1.23342e-06 
410.075 1.23397e-06 
410.605 1.23452e-06 
411.136 1.23508e-06 
411.666 1.23564e-06 
412.196 1.2362e-06 
412.727 1.23676e-06 
413.257 1.23732e-06 
413.787 1.23789e-06 
414.317 1.23846e-06 
414.848 1.23903e-06 
415.378 1.2396e-06 
415.908 1.24018e-06 
416.438 1.24075e-06 
416.969 1.24133e-06 
417.499 1.24191e-06 
418.029 1.2425e-06 
418.56 1.24308e-06 
419.09 1.24367e-06 
419.62 1.24426e-06 
420.15 1.24485e-06 
420.681 1.24545e-06 
421.211 1.24604e-06 
421.741 1.24664e-06 
422.271 1.24725e-06 
422.802 1.24785e-06 
423.332 1.24846e-06 
423.862 1.24906e-06 
424.393 1.24967e-06 
424.923 1.25029e-06 
425.453 1.2509e-06 
425.983 1.25152e-06 
426.514 1.25214e-06 
427.044 1.25276e-06 
427.574 1.25339e-06 
428.104 1.25402e-06 
428.635 1.25464e-06 
429.165 1.25528e-06 
429.695 1.25591e-06 
430.226 1.25654e-06 
430.756 1.25718e-06 
431.286 1.25782e-06 
431.816 1.25846e-06 
432.347 1.2591e-06 
432.877 1.25975e-06 
433.407 1.2604e-06 
433.938 1.26104e-06 
434.468 1.26169e-06 
434.998 1.26234e-06 
435.528 1.26299e-06 
436.059 1.26364e-06 
436.589 1.2643e-06 
437.119 1.26495e-06 
437.649 1.2656e-06 
438.18 1.26626e-06 
438.71 1.26691e-06 
439.24 1.26757e-06 
439.771 1.26822e-06 
440.301 1.26887e-06 
440.831 1.26952e-06 
441.361 1.27017e-06 
441.892 1.27082e-06 
442.422 1.27147e-06 
442.952 1.27211e-06 
443.482 1.27275e-06 
444.013 1.27339e-06 
444.543 1.27403e-06 
445.073 1.27466e-06 
445.604 1.27529e-06 
446.134 1.27591e-06 
446.664 1.27653e-06 
447.194 1.27714e-06 
447.725 1.27775e-06 
448.255 1.27835e-06 
448.785 1.27894e-06 
449.315 1.27953e-06 
449.846 1.28011e-06 
450.376 1.28068e-06 
450.906 1.28125e-06 
451.437 1.2818e-06 
451.967 1.28235e-06 
452.497 1.28289e-06 
453.027 1.28342e-06 
453.558 1.28395e-06 
454.088 1.28446e-06 
454.618 1.28497e-06 
455.148 1.28547e-06 
455.679 1.28596e-06 
456.209 1.28645e-06 
456.739 1.28693e-06 
457.27 1.2874e-06 
457.8 1.28788e-06 
458.33 1.28836e-06 
458.86 1.28883e-06 
459.391 1.28932e-06 
459.921 1.28982e-06 
460.451 1.29033e-06 
460.981 1.29086e-06 
461.512 1.29141e-06 
462.042 1.29201e-06 
462.572 1.29264e-06 
463.103 1.29334e-06 
463.633 1.2941e-06 
464.163 1.29495e-06 
464.693 1.29591e-06 
465.224 1.297e-06 
465.754 1.29825e-06 
466.284 1.2997e-06 
466.814 1.3014e-06 
467.345 1.30339e-06 
467.875 1.30575e-06 
468.405 1.30857e-06 
468.936 1.31196e-06 
469.466 1.31606e-06 
469.996 1.32103e-06 
470.526 1.32713e-06 
471.057 1.33463e-06 
471.587 1.34391e-06 
472.117 1.35545e-06 
472.647 1.36983e-06 
473.178 1.38775e-06 
473.708 1.40992e-06 
474.238 1.4369e-06 
474.769 1.46863e-06 
475.299 1.50362e-06 
475.829 1.538e-06 
476.359 1.56519e-06 
476.89 1.57775e-06 
477.42 1.57143e-06 
477.95 1.54815e-06 
478.48 1.51459e-06 
479.011 1.47804e-06 
479.541 1.44352e-06 
480.071 1.41338e-06 
480.602 1.38821e-06 
481.132 1.36763e-06 
481.662 1.35101e-06 
482.192 1.33765e-06 
482.723 1.32693e-06 
483.253 1.31838e-06 
483.783 1.31162e-06 
484.313 1.30636e-06 
484.844 1.30242e-06 
485.374 1.29965e-06 
485.904 1.29799e-06 
486.435 1.29742e-06 
486.965 1.29797e-06 
487.495 1.2997e-06 
488.025 1.30276e-06 
488.556 1.30735e-06 
489.086 1.31373e-06 
489.616 1.32226e-06 
490.146 1.33344e-06 
490.677 1.34789e-06 
491.207 1.36643e-06 
491.737 1.3901e-06 
492.268 1.42017e-06 
492.798 1.45813e-06 
493.328 1.50545e-06 
493.858 1.56309e-06 
494.389 1.6304e-06 
494.919 1.70328e-06 
495.449 1.7722e-06 
495.979 1.82238e-06 
496.51 1.83891e-06 
497.04 1.81556e-06 
497.57 1.75924e-06 
498.101 1.685e-06 
498.631 1.60738e-06 
499.161 1.53561e-06 
499.691 1.47365e-06 
500.222 1.42209e-06 
500.752 1.38001e-06 
501.282 1.34595e-06 
501.812 1.31851e-06 
502.343 1.29645e-06 
502.873 1.2788e-06 
503.403 1.26483e-06 
503.934 1.25399e-06 
504.464 1.24588e-06 
504.994 1.24028e-06 
505.524 1.23704e-06 
506.055 1.23615e-06 
506.585 1.23769e-06 
507.115 1.24184e-06 
507.646 1.24889e-06 
508.176 1.2593e-06 
508.706 1.27366e-06 
509.236 1.29277e-06 
509.767 1.3177e-06 
510.297 1.34982e-06 
510.827 1.39092e-06 
511.357 1.44325e-06 
511.888 1.50955e-06 
512.418 1.59292e-06 
512.948 1.69628e-06 
513.479 1.82109e-06 
514.009 1.96473e-06 
514.539 2.11646e-06 
515.069 2.25383e-06 
515.6 2.34497e-06 
516.13 2.36168e-06 
516.66 2.29722e-06 
517.19 2.17101e-06 
517.721 2.01516e-06 
518.251 1.8575e-06 
518.781 1.71435e-06 
519.312 1.59191e-06 
519.842 1.49039e-06 
520.372 1.40743e-06 
520.902 1.3399e-06 
521.433 1.28484e-06 
521.963 1.23974e-06 
522.493 1.20255e-06 
523.023 1.17164e-06 
523.554 1.14577e-06 
524.084 1.12394e-06 
524.614 1.1054e-06 
525.145 1.08952e-06 
525.675 1.07585e-06 
526.205 1.064e-06 
526.735 1.05367e-06 
527.266 1.04462e-06 
527.796 1.03664e-06 
528.326 1.02958e-06 
528.856 1.02331e-06 
529.387 1.01772e-06 
529.917 1.0127e-06 
530.447 1.0082e-06 
530.978 1.00414e-06 
531.508 1.00046e-06 
532.038 9.97132e-07 
532.568 9.94104e-07 
533.099 9.91344e-07 
533.629 9.88823e-07 
534.159 9.86515e-07 
534.689 9.84399e-07 
535.22 9.82455e-07 
535.75 9.80666e-07 
536.28 9.79018e-07 
536.811 9.77496e-07 
537.341 9.7609e-07 
537.871 9.7479e-07 
538.401 9.73586e-07 
538.932 9.72469e-07 
539.462 9.71434e-07 
539.992 9.70472e-07 
540.522 9.69578e-07 
541.053 9.68748e-07 
541.583 9.67976e-07 
542.113 9.67257e-07 
542.644 9.66589e-07 
543.174 9.65967e-07 
543.704 9.65388e-07 
544.234 9.64849e-07 
544.765 9.64347e-07 
545.295 9.63881e-07 
545.825 9.63447e-07 
546.355 9.63043e-07 
546.886 9.62669e-07 
547.416 9.62321e-07 
547.946 9.61999e-07 
548.477 9.617e-07 
549.007 9.61424e-07 
549.537 9.6117e-07 
550.067 9.60935e-07 
550.598 9.60719e-07 
551.128 9.60521e-07 
551.658 9.60339e-07 
552.188 9.60174e-07 
552.719 9.60024e-07 
553.249 9.59888e-07 
553.779 9.59766e-07 
554.31 9.59656e-07 
554.84 9.59559e-07 
555.37 9.59474e-07 
555.9 9.594e-07 
556.431 9.59337e-07 
556.961 9.59284e-07 
557.491 9.59241e-07 
558.021 9.59207e-07 
558.552 9.59181e-07 
559.082 9.59165e-07 
559.612 9.59157e-07 
560.143 9.59156e-07 
560.673 9.59163e-07 
561.203 9.59177e-07 
561.733 9.59198e-07 
562.264 9.59225e-07 
562.794 9.5926e-07 
563.324 9.59299e-07 
563.854 9.59346e-07 
564.385 9.59397e-07 
564.915 9.59454e-07 
565.445 9.59516e-07 
565.976 9.59583e-07 
566.506 9.59656e-07 
567.036 9.59733e-07 
567.566 9.59814e-07 
568.097 9.599e-07 
568.627 9.5999e-07 
569.157 9.60085e-07 
569.688 9.60183e-07 
570.218 9.60285e-07 
570.748 9.6039e-07 
571.278 9.605e-07 
571.809 9.60612e-07 
572.339 9.60729e-07 
572.869 9.60848e-07 
573.399 9.60971e-07 
573.93 9.61097e-07 
574.46 9.61226e-07 
574.99 9.61357e-07 
575.521 9.61492e-07 
576.051 9.61629e-07 
576.581 9.61769e-07 
577.111 9.61911e-07 
577.642 9.62057e-07 
578.172 9.62204e-07 
578.702 9.62354e-07 
579.232 9.62506e-07 
579.763 9.62661e-07 
580.293 9.62817e-07 
580.823 9.62976e-07 
581.354 9.63137e-07 
581.884 9.633e-07 
582.414 9.63465e-07 
582.944 9.63633e-07 
583.475 9.63801e-07 
584.005 9.63972e-07 
584.535 9.64145e-07 
585.065 9.6432e-07 
585.596 9.64496e-07 
586.126 9.64674e-07 
586.656 9.64854e-07 
587.187 9.65035e-07 
587.717 9.65218e-07 
588.247 9.65402e-07 
588.777 9.65588e-07 
589.308 9.65775e-07 
589.838 9.65964e-07 
590.368 9.66155e-07 
590.898 9.66347e-07 
591.429 9.6654e-07 
591.959 9.66735e-07 
592.489 9.66931e-07 
593.02 9.67128e-07 
593.55 9.67326e-07 
594.08 9.67527e-07 
594.61 9.67728e-07 
595.141 9.67931e-07 
595.671 9.68134e-07 
596.201 9.68339e-07 
596.731 9.68544e-07 
597.262 9.68752e-07 
597.792 9.6896e-07 
598.322 9.69169e-07 
598.853 9.6938e-07 
599.383 9.69592e-07 
599.913 9.69804e-07 
600.443 9.70018e-07 
600.974 9.70233e-07 
601.504 9.70449e-07 
602.034 9.70665e-07 
602.564 9.70884e-07 
603.095 9.71102e-07 
603.625 9.71322e-07 
604.155 9.71543e-07 
604.686 9.71764e-07 
605.216 9.71988e-07 
605.746 9.72211e-07 
606.276 9.72436e-07 
606.807 9.72661e-07 
607.337 9.72887e-07 
607.867 9.73115e-07 
608.397 9.73343e-07 
608.928 9.73572e-07 
609.458 9.73802e-07 
609.988 9.74032e-07 
610.519 9.74264e-07 
611.049 9.74496e-07 
611.579 9.74729e-07 
612.109 9.74963e-07 
612.64 9.75198e-07 
613.17 9.75434e-07 
613.7 9.7567e-07 
614.23 9.75907e-07 
614.761 9.76145e-07 
615.291 9.76384e-07 
615.821 9.76624e-07 
616.352 9.76864e-07 
616.882 9.77105e-07 
617.412 9.77347e-07 
617.942 9.7759e-07 
618.473 9.77833e-07 
619.003 9.78077e-07 
619.533 9.78322e-07 
620.063 9.78567e-07 
620.594 9.78813e-07 
621.124 9.79061e-07 
621.654 9.79308e-07 
622.185 9.79557e-07 
622.715 9.79806e-07 
623.245 9.80056e-07 
623.775 9.80306e-07 
624.306 9.80557e-07 
624.836 9.80809e-07 
625.366 9.81062e-07 
625.896 9.81315e-07 
626.427 9.81568e-07 
626.957 9.81823e-07 
627.487 9.82078e-07 
628.018 9.82334e-07 
628.548 9.8259e-07 
629.078 9.82847e-07 
629.608 9.83105e-07 
630.139 9.83364e-07 
630.669 9.83623e-07 
631.199 9.83883e-07 
631.729 9.84143e-07 
632.26 9.84405e-07 
632.79 9.84666e-07 
633.32 9.84929e-07 
633.851 9.85192e-07 
634.381 9.85455e-07 
634.911 9.8572e-07 
635.441 9.85984e-07 
635.972 9.8625e-07 
636.502 9.86516e-07 
637.032 9.86783e-07 
637.562 9.8705e-07 
638.093 9.87319e-07 
638.623 9.87587e-07 
639.153 9.87857e-07 
639.684 9.88127e-07 
640.214 9.88397e-07 
640.744 9.88669e-07 
641.274 9.88941e-07 
641.805 9.89213e-07 
642.335 9.89486e-07 
642.865 9.8976e-07 
643.396 9.90034e-07 
643.926 9.90309e-07 
644.456 9.90584e-07 
644.986 9.9086e-07 
645.517 9.91137e-07 
646.047 9.91415e-07 
646.577 9.91692e-07 
647.107 9.91971e-07 
647.638 9.9225e-07 
648.168 9.9253e-07 
648.698 9.9281e-07 
649.229 9.93091e-07 
649.759 9.93372e-07 
650.289 9.93654e-07 
650.819 9.93937e-07 
651.35 9.94221e-07 
651.88 9.94505e-07 
652.41 9.9479e-07 
652.94 9.95075e-07 
653.471 9.95361e-07 
654.001 9.95647e-07 
654.531 9.95934e-07 
655.062 9.96222e-07 
655.592 9.9651e-07 
656.122 9.96799e-07 
656.652 9.97088e-07 
657.183 9.97378e-07 
657.713 9.97669e-07 
658.243 9.9796e-07 
658.773 9.98253e-07 
659.304 9.98545e-07 
659.834 9.98838e-07 
660.364 9.99132e-07 
660.895 9.99426e-07 
661.425 9.99721e-07 
661.955 1.00002e-06 
662.485 1.00031e-06 
663.016 1.00061e-06 
663.546 1.00091e-06 
664.076 1.00121e-06 
664.606 1.0015e-06 
665.137 1.0018e-06 
665.667 1.0021e-06 
666.197 1.0024e-06 
666.728 1.00271e-06 
667.258 1.00301e-06 
667.788 1.00331e-06 
668.318 1.00361e-06 
668.849 1.00392e-06 
669.379 1.00422e-06 
669.909 1.00453e-06 
670.439 1.00483e-06 
670.97 1.00514e-06 
671.5 1.00544e-06 
672.03 1.00575e-06 
672.561 1.00606e-06 
673.091 1.00637e-06 
673.621 1.00668e-06 
674.151 1.00699e-06 
674.682 1.0073e-06 
675.212 1.00761e-06 
675.742 1.00792e-06 
676.272 1.00824e-06 
676.803 1.00855e-06 
677.333 1.00886e-06 
677.863 1.00918e-06 
678.394 1.00949e-06 
678.924 1.00981e-06 
679.454 1.01012e-06 
679.984 1.01044e-06 
680.515 1.01076e-06 
681.045 1.01108e-06 
681.575 1.0114e-06 
682.105 1.01172e-06 
682.636 1.01204e-06 
683.166 1.01236e-06 
683.696 1.01268e-06 
684.227 1.013e-06 
684.757 1.01333e-06 
685.287 1.01365e-06 
685.817 1.01397e-06 
686.348 1.0143e-06 
686.878 1.01462e-06 
687.408 1.01495e-06 
687.938 1.01528e-06 
688.469 1.01561e-06 
688.999 1.01593e-06 
689.529 1.01626e-06 
690.06 1.01659e-06 
690.59 1.01692e-06 
691.12 1.01726e-06 
691.65 1.01759e-06 
692.181 1.01792e-06 
692.711 1.01825e-06 
693.241 1.01859e-06 
693.771 1.01892e-06 
694.302 1.01926e-06 
694.832 1.01959e-06 
695.362 1.01993e-06 
695.893 1.02027e-06 
696.423 1.02061e-06 
696.953 1.02095e-06 
697.483 1.02129e-06 
698.014 1.02163e-06 
698.544 1.02197e-06 
699.074 1.02231e-06 
699.604 1.02265e-06 
700.135 1.023e-06 
700.665 1.02334e-06 
701.195 1.02369e-06 
701.726 1.02403e-06 
702.256 1.02438e-06 
702.786 1.02473e-06 
703.316 1.02507e-06 
703.847 1.02542e-06 
704.377 1.02577e-06 
704.907 1.02612e-06 
705.438 1.02647e-06 
705.968 1.02683e-06 
706.498 1.02718e-06 
707.028 1.02753e-06 
707.559 1.02789e-06 
708.089 1.02824e-06 
708.619 1.0286e-06 
709.149 1.02895e-06 
709.68 1.02931e-06 
710.21 1.02967e-06 
710.74 1.03003e-06 
711.271 1.03039e-06 
711.801 1.03075e-06 
712.331 1.03111e-06 
712.861 1.03147e-06 
713.392 1.03183e-06 
713.922 1.0322e-06 
714.452 1.03256e-06 
714.982 1.03293e-06 
715.513 1.03329e-06 
716.043 1.03366e-06 
716.573 1.03403e-06 
717.104 1.0344e-06 
717.634 1.03477e-06 
718.164 1.03514e-06 
718.694 1.03551e-06 
719.225 1.03588e-06 
719.755 1.03625e-06 
720.285 1.03663e-06 
720.815 1.037e-06 
721.346 1.03738e-06 
721.876 1.03775e-06 
722.406 1.03813e-06 
722.937 1.03851e-06 
723.467 1.03889e-06 
723.997 1.03927e-06 
724.527 1.03965e-06 
725.058 1.04003e-06 
725.588 1.04041e-06 
726.118 1.0408e-06 
726.648 1.04118e-06 
727.179 1.04157e-06 
727.709 1.04195e-06 
728.239 1.04234e-06 
728.77 1.04273e-06 
729.3 1.04312e-06 
729.83 1.04351e-06 
730.36 1.0439e-06 
730.891 1.04429e-06 
731.421 1.04468e-06 
731.951 1.04507e-06 
732.481 1.04547e-06 
733.012 1.04586e-06 
733.542 1.04626e-06 
734.072 1.04666e-06 
734.603 1.04705e-06 
735.133 1.04745e-06 
735.663 1.04785e-06 
736.193 1.04826e-06 
736.724 1.04866e-06 
737.254 1.04906e-06 
737.784 1.04947e-06 
738.314 1.04987e-06 
738.845 1.05028e-06 
739.375 1.05068e-06 
739.905 1.05109e-06 
740.436 1.0515e-06 
740.966 1.05191e-06 
741.496 1.05232e-06 
742.026 1.05273e-06 
742.557 1.05315e-06 
743.087 1.05356e-06 
743.617 1.05398e-06 
744.147 1.05439e-06 
744.678 1.05481e-06 
745.208 1.05523e-06 
745.738 1.05565e-06 
746.269 1.05607e-06 
746.799 1.05649e-06 
747.329 1.05691e-06 
747.859 1.05734e-06 
748.39 1.05776e-06 
748.92 1.05819e-06 
749.45 1.05862e-06 
749.98 1.05904e-06 
750.511 1.05947e-06 
751.041 1.0599e-06 
751.571 1.06034e-06 
752.102 1.06077e-06 
752.632 1.0612e-06 
753.162 1.06164e-06 
753.692 1.06207e-06 
754.223 1.06251e-06 
754.753 1.06295e-06 
755.283 1.06339e-06 
755.813 1.06383e-06 
756.344 1.06427e-06 
756.874 1.06472e-06 
757.404 1.06516e-06 
757.935 1.06561e-06 
758.465 1.06605e-06 
758.995 1.0665e-06 
759.525 1.06695e-06 
760.056 1.0674e-06 
760.586 1.06785e-06 
761.116 1.0683e-06 
761.646 1.06876e-06 
762.177 1.06921e-06 
762.707 1.06967e-06 
763.237 1.07013e-06 
763.768 1.07059e-06 
764.298 1.07105e-06 
764.828 1.07151e-06 
765.358 1.07197e-06 
765.889 1.07244e-06 
766.419 1.0729e-06 
766.949 1.07337e-06 
767.479 1.07384e-06 
768.01 1.07431e-06 
768.54 1.07478e-06 
769.07 1.07525e-06 
769.601 1.07572e-06 
770.131 1.0762e-06 
770.661 1.07667e-06 
771.191 1.07715e-06 
771.722 1.07763e-06 
772.252 1.07811e-06 
772.782 1.07859e-06 
773.312 1.07907e-06 
773.843 1.07956e-06 
774.373 1.08004e-06 
774.903 1.08053e-06 
775.434 1.08102e-06 
775.964 1.08151e-06 
776.494 1.082e-06 
777.024 1.08249e-06 
777.555 1.08299e-06 
778.085 1.08348e-06 
778.615 1.08398e-06 
779.146 1.08448e-06 
779.676 1.08498e-06 
780.206 1.08548e-06 
780.736 1.08599e-06 
781.267 1.08649e-06 
781.797 1.087e-06 
782.327 1.0875e-06 
782.857 1.08801e-06 
783.388 1.08852e-06 
783.918 1.08904e-06 
784.448 1.08955e-06 
784.979 1.09007e-06 
785.509 1.09058e-06 
786.039 1.0911e-06 
786.569 1.09162e-06 
787.1 1.09215e-06 
787.63 1.09267e-06 
788.16 1.0932e-06 
788.69 1.09372e-06 
789.221 1.09425e-06 
789.751 1.09478e-06 
790.281 1.09531e-06 
790.812 1.09585e-06 
791.342 1.09638e-06 
791.872 1.09692e-06 
792.402 1.09746e-06 
792.933 1.098e-06 
793.463 1.09854e-06 
793.993 1.09908e-06 
794.523 1.09963e-06 
795.054 1.10018e-06 
795.584 1.10073e-06 
796.114 1.10128e-06 
796.645 1.10183e-06 
797.175 1.10239e-06 
797.705 1.10294e-06 
798.235 1.1035e-06 
798.766 1.10406e-06 
799.296 1.10462e-06 
799.826 1.10519e-06 
800.356 1.10575e-06 
800.887 1.10632e-06 
801.417 1.10689e-06 
801.947 1.10746e-06 
802.478 1.10803e-06 
803.008 1.10861e-06 
803.538 1.10919e-06 
804.068 1.10977e-06 
804.599 1.11035e-06 
805.129 1.11093e-06 
805.659 1.11152e-06 
806.189 1.1121e-06 
806.72 1.11269e-06 
807.25 1.11328e-06 
807.78 1.11388e-06 
808.311 1.11447e-06 
808.841 1.11507e-06 
809.371 1.11567e-06 
809.901 1.11627e-06 
810.432 1.11688e-06 
810.962 1.11748e-06 
811.492 1.11809e-06 
812.022 1.1187e-06 
812.553 1.11931e-06 
813.083 1.11993e-06 
813.613 1.12054e-06 
814.144 1.12116e-06 
814.674 1.12178e-06 
815.204 1.12241e-06 
815.734 1.12303e-06 
816.265 1.12366e-06 
816.795 1.12429e-06 
817.325 1.12493e-06 
817.855 1.12556e-06 
818.386 1.1262e-06 
818.916 1.12684e-06 
819.446 1.12748e-06 
819.977 1.12813e-06 
820.507 1.12877e-06 
821.037 1.12942e-06 
821.567 1.13008e-06 
822.098 1.13073e-06 
822.628 1.13139e-06 
823.158 1.13205e-06 
823.688 1.13271e-06 
824.219 1.13337e-06 
824.749 1.13404e-06 
825.279 1.13471e-06 
825.81 1.13538e-06 
826.34 1.13606e-06 
826.87 1.13674e-06 
827.4 1.13742e-06 
827.931 1.1381e-06 
828.461 1.13879e-06 
828.991 1.13947e-06 
829.521 1.14016e-06 
830.052 1.14086e-06 
830.582 1.14156e-06 
831.112 1.14225e-06 
831.643 1.14296e-06 
832.173 1.14366e-06 
832.703 1.14437e-06 
833.233 1.14508e-06 
833.764 1.1458e-06 
834.294 1.14651e-06 
834.824 1.14723e-06 
835.354 1.14796e-06 
835.885 1.14868e-06 
836.415 1.14941e-06 
836.945 1.15014e-06 
837.476 1.15088e-06 
838.006 1.15162e-06 
838.536 1.15236e-06 
839.066 1.1531e-06 
839.597 1.15385e-06 
840.127 1.1546e-06 
840.657 1.15536e-06 
841.188 1.15611e-06 
841.718 1.15687e-06 
842.248 1.15764e-06 
842.778 1.1584e-06 
843.309 1.15918e-06 
843.839 1.15995e-06 
844.369 1.16073e-06 
844.899 1.16151e-06 
845.43 1.16229e-06 
845.96 1.16308e-06 
846.49 1.16387e-06 
847.021 1.16467e-06 
847.551 1.16547e-06 
848.081 1.16627e-06 
848.611 1.16708e-06 
849.142 1.16789e-06 
849.672 1.1687e-06 
850.202 1.16952e-06 
850.732 1.17034e-06 
851.263 1.17117e-06 
851.793 1.172e-06 
852.323 1.17283e-06 
852.854 1.17367e-06 
853.384 1.17451e-06 
853.914 1.17535e-06 
854.444 1.1762e-06 
854.975 1.17706e-06 
855.505 1.17792e-06 
856.035 1.17878e-06 
856.565 1.17964e-06 
857.096 1.18051e-06 
857.626 1.18139e-06 
858.156 1.18227e-06 
858.687 1.18315e-06 
859.217 1.18404e-06 
859.747 1.18493e-06 
860.277 1.18583e-06 
860.808 1.18673e-06 
861.338 1.18764e-06 
861.868 1.18855e-06 
862.398 1.18947e-06 
862.929 1.19039e-06 
863.459 1.19132e-06 
863.989 1.19225e-06 
864.52 1.19318e-06 
865.05 1.19412e-06 
865.58 1.19507e-06 
866.11 1.19602e-06 
866.641 1.19698e-06 
867.171 1.19794e-06 
867.701 1.19891e-06 
868.231 1.19988e-06 
868.762 1.20086e-06 
869.292 1.20185e-06 
869.822 1.20284e-06 
870.353 1.20383e-06 
870.883 1.20484e-06 
871.413 1.20584e-06 
871.943 1.20686e-06 
872.474 1.20788e-06 
873.004 1.2089e-06 
873.534 1.20994e-06 
874.064 1.21098e-06 
874.595 1.21202e-06 
875.125 1.21307e-06 
875.655 1.21413e-06 
876.186 1.2152e-06 
876.716 1.21627e-06 
877.246 1.21735e-06 
877.776 1.21844e-06 
878.307 1.21953e-06 
878.837 1.22063e-06 
879.367 1.22174e-06 
879.897 1.22285e-06 
880.428 1.22397e-06 
880.958 1.2251e-06 
881.488 1.22624e-06 
882.019 1.22738e-06 
882.549 1.22854e-06 
883.079 1.2297e-06 
883.609 1.23086e-06 
884.14 1.23204e-06 
884.67 1.23322e-06 
885.2 1.23441e-06 
885.73 1.23561e-06 
886.261 1.23681e-06 
886.791 1.23803e-06 
887.321 1.23925e-06 
887.852 1.24048e-06 
888.382 1.24171e-06 
888.912 1.24295e-06 
889.442 1.2442e-06 
889.973 1.24546e-06 
890.503 1.24672e-06 
891.033 1.24799e-06 
891.563 1.24926e-06 
892.094 1.25054e-06 
892.624 1.25183e-06 
893.154 1.25311e-06 
893.685 1.25441e-06 
894.215 1.2557e-06 
894.745 1.257e-06 
895.275 1.2583e-06 
895.806 1.2596e-06 
896.336 1.26089e-06 
896.866 1.26219e-06 
897.396 1.26349e-06 
897.927 1.26478e-06 
898.457 1.26606e-06 
898.987 1.26734e-06 
899.518 1.26861e-06 
900.048 1.26987e-06 
900.578 1.27111e-06 
901.108 1.27234e-06 
901.639 1.27355e-06 
902.169 1.27475e-06 
902.699 1.27591e-06 
903.229 1.27706e-06 
903.76 1.27817e-06 
904.29 1.27925e-06 
904.82 1.28029e-06 
905.351 1.2813e-06 
905.881 1.28226e-06 
906.411 1.28316e-06 
906.941 1.28402e-06 
907.472 1.28481e-06 
908.002 1.28554e-06 
908.532 1.2862e-06 
909.062 1.28678e-06 
909.593 1.28727e-06 
910.123 1.28768e-06 
