#energy geo_1 
400 5.31834e-07 
400.53 5.31916e-07 
401.061 5.31999e-07 
401.591 5.32081e-07 
402.121 5.32164e-07 
402.651 5.32246e-07 
403.182 5.32329e-07 
403.712 5.32411e-07 
404.242 5.32494e-07 
404.772 5.32577e-07 
405.303 5.32659e-07 
405.833 5.32742e-07 
406.363 5.32825e-07 
406.894 5.32908e-07 
407.424 5.32991e-07 
407.954 5.33074e-07 
408.484 5.33157e-07 
409.015 5.3324e-07 
409.545 5.33323e-07 
410.075 5.33407e-07 
410.605 5.3349e-07 
411.136 5.33574e-07 
411.666 5.33657e-07 
412.196 5.3374e-07 
412.727 5.33824e-07 
413.257 5.33907e-07 
413.787 5.33991e-07 
414.317 5.34075e-07 
414.848 5.34158e-07 
415.378 5.34242e-07 
415.908 5.34326e-07 
416.438 5.3441e-07 
416.969 5.34494e-07 
417.499 5.34578e-07 
418.029 5.34662e-07 
418.56 5.34746e-07 
419.09 5.3483e-07 
419.62 5.34914e-07 
420.15 5.34999e-07 
420.681 5.35083e-07 
421.211 5.35167e-07 
421.741 5.35252e-07 
422.271 5.35336e-07 
422.802 5.35421e-07 
423.332 5.35505e-07 
423.862 5.3559e-07 
424.393 5.35675e-07 
424.923 5.3576e-07 
425.453 5.35844e-07 
425.983 5.35929e-07 
426.514 5.36014e-07 
427.044 5.36099e-07 
427.574 5.36184e-07 
428.104 5.36269e-07 
428.635 5.36354e-07 
429.165 5.3644e-07 
429.695 5.36525e-07 
430.226 5.3661e-07 
430.756 5.36696e-07 
431.286 5.36781e-07 
431.816 5.36867e-07 
432.347 5.36952e-07 
432.877 5.37038e-07 
433.407 5.37123e-07 
433.938 5.37209e-07 
434.468 5.37295e-07 
434.998 5.37381e-07 
435.528 5.37467e-07 
436.059 5.37553e-07 
436.589 5.37639e-07 
437.119 5.37725e-07 
437.649 5.37811e-07 
438.18 5.37897e-07 
438.71 5.37983e-07 
439.24 5.38069e-07 
439.771 5.38156e-07 
440.301 5.38242e-07 
440.831 5.38329e-07 
441.361 5.38416e-07 
441.892 5.38502e-07 
442.422 5.38589e-07 
442.952 5.38675e-07 
443.482 5.38762e-07 
444.013 5.38849e-07 
444.543 5.38936e-07 
445.073 5.39023e-07 
445.604 5.3911e-07 
446.134 5.39197e-07 
446.664 5.39284e-07 
447.194 5.39371e-07 
447.725 5.39458e-07 
448.255 5.39546e-07 
448.785 5.39633e-07 
449.315 5.39721e-07 
449.846 5.39808e-07 
450.376 5.39896e-07 
450.906 5.39983e-07 
451.437 5.40071e-07 
451.967 5.40159e-07 
452.497 5.40246e-07 
453.027 5.40334e-07 
453.558 5.40422e-07 
454.088 5.4051e-07 
454.618 5.40598e-07 
455.148 5.40686e-07 
455.679 5.40774e-07 
456.209 5.40863e-07 
456.739 5.40951e-07 
457.27 5.41039e-07 
457.8 5.41128e-07 
458.33 5.41216e-07 
458.86 5.41304e-07 
459.391 5.41393e-07 
459.921 5.41482e-07 
460.451 5.41571e-07 
460.981 5.4166e-07 
461.512 5.41748e-07 
462.042 5.41837e-07 
462.572 5.41926e-07 
463.103 5.42015e-07 
463.633 5.42104e-07 
464.163 5.42193e-07 
464.693 5.42283e-07 
465.224 5.42372e-07 
465.754 5.42461e-07 
466.284 5.42551e-07 
466.814 5.4264e-07 
467.345 5.4273e-07 
467.875 5.4282e-07 
468.405 5.42909e-07 
468.936 5.42999e-07 
469.466 5.43089e-07 
469.996 5.43179e-07 
470.526 5.43269e-07 
471.057 5.43359e-07 
471.587 5.43449e-07 
472.117 5.43539e-07 
472.647 5.43629e-07 
473.178 5.43719e-07 
473.708 5.4381e-07 
474.238 5.439e-07 
474.769 5.4399e-07 
475.299 5.44081e-07 
475.829 5.44172e-07 
476.359 5.44262e-07 
476.89 5.44353e-07 
477.42 5.44444e-07 
477.95 5.44535e-07 
478.48 5.44626e-07 
479.011 5.44717e-07 
479.541 5.44808e-07 
480.071 5.44899e-07 
480.602 5.4499e-07 
481.132 5.45081e-07 
481.662 5.45172e-07 
482.192 5.45264e-07 
482.723 5.45355e-07 
483.253 5.45447e-07 
483.783 5.45538e-07 
484.313 5.4563e-07 
484.844 5.45722e-07 
485.374 5.45814e-07 
485.904 5.45906e-07 
486.435 5.45998e-07 
486.965 5.4609e-07 
487.495 5.46182e-07 
488.025 5.46274e-07 
488.556 5.46366e-07 
489.086 5.46458e-07 
489.616 5.46551e-07 
490.146 5.46643e-07 
490.677 5.46736e-07 
491.207 5.46828e-07 
491.737 5.46921e-07 
492.268 5.47014e-07 
492.798 5.47106e-07 
493.328 5.472e-07 
493.858 5.47292e-07 
494.389 5.47386e-07 
494.919 5.47479e-07 
495.449 5.47572e-07 
495.979 5.47665e-07 
496.51 5.47758e-07 
497.04 5.47852e-07 
497.57 5.47945e-07 
498.101 5.48039e-07 
498.631 5.48132e-07 
499.161 5.48226e-07 
499.691 5.4832e-07 
500.222 5.48413e-07 
500.752 5.48507e-07 
501.282 5.48601e-07 
501.812 5.48695e-07 
502.343 5.48789e-07 
502.873 5.48883e-07 
503.403 5.48978e-07 
503.934 5.49072e-07 
504.464 5.49166e-07 
504.994 5.49261e-07 
505.524 5.49355e-07 
506.055 5.4945e-07 
506.585 5.49545e-07 
507.115 5.49639e-07 
507.646 5.49734e-07 
508.176 5.49829e-07 
508.706 5.49924e-07 
509.236 5.50019e-07 
509.767 5.50114e-07 
510.297 5.5021e-07 
510.827 5.50305e-07 
511.357 5.504e-07 
511.888 5.50496e-07 
512.418 5.50591e-07 
512.948 5.50687e-07 
513.479 5.50782e-07 
514.009 5.50878e-07 
514.539 5.50974e-07 
515.069 5.5107e-07 
515.6 5.51166e-07 
516.13 5.51262e-07 
516.66 5.51358e-07 
517.19 5.51455e-07 
517.721 5.51551e-07 
518.251 5.51647e-07 
518.781 5.51744e-07 
519.312 5.5184e-07 
519.842 5.51937e-07 
520.372 5.52034e-07 
520.902 5.52131e-07 
521.433 5.52227e-07 
521.963 5.52324e-07 
522.493 5.52421e-07 
523.023 5.52518e-07 
523.554 5.52616e-07 
524.084 5.52713e-07 
524.614 5.5281e-07 
525.145 5.52908e-07 
525.675 5.53005e-07 
526.205 5.53103e-07 
526.735 5.532e-07 
527.266 5.53298e-07 
527.796 5.53396e-07 
528.326 5.53494e-07 
528.856 5.53591e-07 
529.387 5.5369e-07 
529.917 5.53788e-07 
530.447 5.53886e-07 
530.978 5.53984e-07 
531.508 5.54083e-07 
532.038 5.54181e-07 
532.568 5.5428e-07 
533.099 5.54378e-07 
533.629 5.54477e-07 
534.159 5.54576e-07 
534.689 5.54675e-07 
535.22 5.54774e-07 
535.75 5.54873e-07 
536.28 5.54972e-07 
536.811 5.55071e-07 
537.341 5.55171e-07 
537.871 5.5527e-07 
538.401 5.5537e-07 
538.932 5.55469e-07 
539.462 5.55569e-07 
539.992 5.55669e-07 
540.522 5.55768e-07 
541.053 5.55869e-07 
541.583 5.55969e-07 
542.113 5.56069e-07 
542.644 5.56169e-07 
543.174 5.56269e-07 
543.704 5.5637e-07 
544.234 5.5647e-07 
544.765 5.5657e-07 
545.295 5.56671e-07 
545.825 5.56772e-07 
546.355 5.56873e-07 
546.886 5.56973e-07 
547.416 5.57074e-07 
547.946 5.57175e-07 
548.477 5.57277e-07 
549.007 5.57378e-07 
549.537 5.57479e-07 
550.067 5.57581e-07 
550.598 5.57682e-07 
551.128 5.57784e-07 
551.658 5.57885e-07 
552.188 5.57987e-07 
552.719 5.58089e-07 
553.249 5.58191e-07 
553.779 5.58293e-07 
554.31 5.58395e-07 
554.84 5.58497e-07 
555.37 5.586e-07 
555.9 5.58702e-07 
556.431 5.58805e-07 
556.961 5.58907e-07 
557.491 5.5901e-07 
558.021 5.59113e-07 
558.552 5.59215e-07 
559.082 5.59318e-07 
559.612 5.59421e-07 
560.143 5.59524e-07 
560.673 5.59628e-07 
561.203 5.59731e-07 
561.733 5.59835e-07 
562.264 5.59938e-07 
562.794 5.60042e-07 
563.324 5.60146e-07 
563.854 5.60249e-07 
564.385 5.60353e-07 
564.915 5.60457e-07 
565.445 5.60561e-07 
565.976 5.60666e-07 
566.506 5.6077e-07 
567.036 5.60874e-07 
567.566 5.60979e-07 
568.097 5.61084e-07 
568.627 5.61188e-07 
569.157 5.61293e-07 
569.688 5.61398e-07 
570.218 5.61503e-07 
570.748 5.61608e-07 
571.278 5.61713e-07 
571.809 5.61819e-07 
572.339 5.61924e-07 
572.869 5.62029e-07 
573.399 5.62135e-07 
573.93 5.6224e-07 
574.46 5.62346e-07 
574.99 5.62452e-07 
575.521 5.62558e-07 
576.051 5.62664e-07 
576.581 5.6277e-07 
577.111 5.62876e-07 
577.642 5.62983e-07 
578.172 5.6309e-07 
578.702 5.63196e-07 
579.232 5.63302e-07 
579.763 5.63409e-07 
580.293 5.63516e-07 
580.823 5.63623e-07 
581.354 5.6373e-07 
581.884 5.63837e-07 
582.414 5.63945e-07 
582.944 5.64052e-07 
583.475 5.6416e-07 
584.005 5.64267e-07 
584.535 5.64375e-07 
585.065 5.64483e-07 
585.596 5.64591e-07 
586.126 5.64699e-07 
586.656 5.64807e-07 
587.187 5.64915e-07 
587.717 5.65023e-07 
588.247 5.65132e-07 
588.777 5.6524e-07 
589.308 5.65349e-07 
589.838 5.65458e-07 
590.368 5.65566e-07 
590.898 5.65676e-07 
591.429 5.65785e-07 
591.959 5.65894e-07 
592.489 5.66003e-07 
593.02 5.66113e-07 
593.55 5.66222e-07 
594.08 5.66332e-07 
594.61 5.66441e-07 
595.141 5.66551e-07 
595.671 5.66661e-07 
596.201 5.66771e-07 
596.731 5.66881e-07 
597.262 5.66992e-07 
597.792 5.67102e-07 
598.322 5.67212e-07 
598.853 5.67323e-07 
599.383 5.67434e-07 
599.913 5.67545e-07 
600.443 5.67656e-07 
600.974 5.67767e-07 
601.504 5.67878e-07 
602.034 5.67989e-07 
602.564 5.681e-07 
603.095 5.68212e-07 
603.625 5.68324e-07 
604.155 5.68435e-07 
604.686 5.68547e-07 
605.216 5.68659e-07 
605.746 5.68771e-07 
606.276 5.68883e-07 
606.807 5.68996e-07 
607.337 5.69108e-07 
607.867 5.6922e-07 
608.397 5.69333e-07 
608.928 5.69446e-07 
609.458 5.69559e-07 
609.988 5.69672e-07 
610.519 5.69785e-07 
611.049 5.69898e-07 
611.579 5.70012e-07 
612.109 5.70125e-07 
612.64 5.70239e-07 
613.17 5.70353e-07 
613.7 5.70466e-07 
614.23 5.7058e-07 
614.761 5.70694e-07 
615.291 5.70808e-07 
615.821 5.70923e-07 
616.352 5.71037e-07 
616.882 5.71152e-07 
617.412 5.71266e-07 
617.942 5.71381e-07 
618.473 5.71496e-07 
619.003 5.71611e-07 
619.533 5.71726e-07 
620.063 5.71841e-07 
620.594 5.71957e-07 
621.124 5.72072e-07 
621.654 5.72188e-07 
622.185 5.72304e-07 
622.715 5.7242e-07 
623.245 5.72536e-07 
623.775 5.72652e-07 
624.306 5.72768e-07 
624.836 5.72884e-07 
625.366 5.73001e-07 
625.896 5.73117e-07 
626.427 5.73234e-07 
626.957 5.73351e-07 
627.487 5.73468e-07 
628.018 5.73585e-07 
628.548 5.73702e-07 
629.078 5.7382e-07 
629.608 5.73937e-07 
630.139 5.74055e-07 
630.669 5.74173e-07 
631.199 5.74291e-07 
631.729 5.74409e-07 
632.26 5.74527e-07 
632.79 5.74645e-07 
633.32 5.74764e-07 
633.851 5.74882e-07 
634.381 5.75001e-07 
634.911 5.75119e-07 
635.441 5.75238e-07 
635.972 5.75357e-07 
636.502 5.75477e-07 
637.032 5.75596e-07 
637.562 5.75716e-07 
638.093 5.75836e-07 
638.623 5.75955e-07 
639.153 5.76075e-07 
639.684 5.76195e-07 
640.214 5.76315e-07 
640.744 5.76435e-07 
641.274 5.76556e-07 
641.805 5.76676e-07 
642.335 5.76797e-07 
642.865 5.76918e-07 
643.396 5.77038e-07 
643.926 5.77159e-07 
644.456 5.77281e-07 
644.986 5.77402e-07 
645.517 5.77524e-07 
646.047 5.77645e-07 
646.577 5.77767e-07 
647.107 5.77889e-07 
647.638 5.78011e-07 
648.168 5.78133e-07 
648.698 5.78255e-07 
649.229 5.78378e-07 
649.759 5.78501e-07 
650.289 5.78623e-07 
650.819 5.78747e-07 
651.35 5.7887e-07 
651.88 5.78993e-07 
652.41 5.79116e-07 
652.94 5.79239e-07 
653.471 5.79363e-07 
654.001 5.79487e-07 
654.531 5.79611e-07 
655.062 5.79735e-07 
655.592 5.79859e-07 
656.122 5.79983e-07 
656.652 5.80108e-07 
657.183 5.80232e-07 
657.713 5.80357e-07 
658.243 5.80482e-07 
658.773 5.80607e-07 
659.304 5.80732e-07 
659.834 5.80858e-07 
660.364 5.80983e-07 
660.895 5.81109e-07 
661.425 5.81234e-07 
661.955 5.8136e-07 
662.485 5.81486e-07 
663.016 5.81612e-07 
663.546 5.81739e-07 
664.076 5.81865e-07 
664.606 5.81992e-07 
665.137 5.82119e-07 
665.667 5.82246e-07 
666.197 5.82373e-07 
666.728 5.825e-07 
667.258 5.82628e-07 
667.788 5.82755e-07 
668.318 5.82883e-07 
668.849 5.83011e-07 
669.379 5.83139e-07 
669.909 5.83267e-07 
670.439 5.83395e-07 
670.97 5.83524e-07 
671.5 5.83653e-07 
672.03 5.83782e-07 
672.561 5.8391e-07 
673.091 5.84039e-07 
673.621 5.84169e-07 
674.151 5.84298e-07 
674.682 5.84428e-07 
675.212 5.84558e-07 
675.742 5.84687e-07 
676.272 5.84817e-07 
676.803 5.84948e-07 
677.333 5.85078e-07 
677.863 5.85209e-07 
678.394 5.85339e-07 
678.924 5.85471e-07 
679.454 5.85601e-07 
679.984 5.85733e-07 
680.515 5.85864e-07 
681.045 5.85996e-07 
681.575 5.86128e-07 
682.105 5.86259e-07 
682.636 5.86391e-07 
683.166 5.86523e-07 
683.696 5.86656e-07 
684.227 5.86788e-07 
684.757 5.86921e-07 
685.287 5.87054e-07 
685.817 5.87187e-07 
686.348 5.8732e-07 
686.878 5.87454e-07 
687.408 5.87587e-07 
687.938 5.87721e-07 
688.469 5.87855e-07 
688.999 5.87989e-07 
689.529 5.88123e-07 
690.06 5.88257e-07 
690.59 5.88392e-07 
691.12 5.88526e-07 
691.65 5.88661e-07 
692.181 5.88796e-07 
692.711 5.88931e-07 
693.241 5.89067e-07 
693.771 5.89202e-07 
694.302 5.89338e-07 
694.832 5.89474e-07 
695.362 5.8961e-07 
695.893 5.89746e-07 
696.423 5.89882e-07 
696.953 5.90019e-07 
697.483 5.90156e-07 
698.014 5.90293e-07 
698.544 5.9043e-07 
699.074 5.90567e-07 
699.604 5.90705e-07 
700.135 5.90842e-07 
700.665 5.9098e-07 
701.195 5.91118e-07 
701.726 5.91257e-07 
702.256 5.91395e-07 
702.786 5.91534e-07 
703.316 5.91672e-07 
703.847 5.91811e-07 
704.377 5.9195e-07 
704.907 5.92089e-07 
705.438 5.92229e-07 
705.968 5.92368e-07 
706.498 5.92508e-07 
707.028 5.92648e-07 
707.559 5.92789e-07 
708.089 5.92929e-07 
708.619 5.9307e-07 
709.149 5.93211e-07 
709.68 5.93351e-07 
710.21 5.93493e-07 
710.74 5.93634e-07 
711.271 5.93775e-07 
711.801 5.93917e-07 
712.331 5.94059e-07 
712.861 5.94201e-07 
713.392 5.94343e-07 
713.922 5.94486e-07 
714.452 5.94628e-07 
714.982 5.94771e-07 
715.513 5.94914e-07 
716.043 5.95057e-07 
716.573 5.95201e-07 
717.104 5.95344e-07 
717.634 5.95488e-07 
718.164 5.95632e-07 
718.694 5.95776e-07 
719.225 5.95921e-07 
719.755 5.96066e-07 
720.285 5.9621e-07 
720.815 5.96355e-07 
721.346 5.965e-07 
721.876 5.96646e-07 
722.406 5.96791e-07 
722.937 5.96937e-07 
723.467 5.97083e-07 
723.997 5.97229e-07 
724.527 5.97376e-07 
725.058 5.97522e-07 
725.588 5.97669e-07 
726.118 5.97816e-07 
726.648 5.97963e-07 
727.179 5.9811e-07 
727.709 5.98258e-07 
728.239 5.98406e-07 
728.77 5.98553e-07 
729.3 5.98702e-07 
729.83 5.9885e-07 
730.36 5.98999e-07 
730.891 5.99147e-07 
731.421 5.99296e-07 
731.951 5.99446e-07 
732.481 5.99595e-07 
733.012 5.99745e-07 
733.542 5.99894e-07 
734.072 6.00045e-07 
734.603 6.00195e-07 
735.133 6.00345e-07 
735.663 6.00496e-07 
736.193 6.00647e-07 
736.724 6.00798e-07 
737.254 6.00949e-07 
737.784 6.01101e-07 
738.314 6.01252e-07 
738.845 6.01404e-07 
739.375 6.01557e-07 
739.905 6.01709e-07 
740.436 6.01862e-07 
740.966 6.02015e-07 
741.496 6.02168e-07 
742.026 6.02321e-07 
742.557 6.02474e-07 
743.087 6.02628e-07 
743.617 6.02782e-07 
744.147 6.02936e-07 
744.678 6.0309e-07 
745.208 6.03245e-07 
745.738 6.034e-07 
746.269 6.03554e-07 
746.799 6.0371e-07 
747.329 6.03865e-07 
747.859 6.04021e-07 
748.39 6.04177e-07 
748.92 6.04333e-07 
749.45 6.04489e-07 
749.98 6.04646e-07 
750.511 6.04803e-07 
751.041 6.0496e-07 
751.571 6.05117e-07 
752.102 6.05274e-07 
752.632 6.05432e-07 
753.162 6.0559e-07 
753.692 6.05749e-07 
754.223 6.05907e-07 
754.753 6.06065e-07 
755.283 6.06224e-07 
755.813 6.06383e-07 
756.344 6.06543e-07 
756.874 6.06702e-07 
757.404 6.06862e-07 
757.935 6.07022e-07 
758.465 6.07183e-07 
758.995 6.07343e-07 
759.525 6.07504e-07 
760.056 6.07664e-07 
760.586 6.07826e-07 
761.116 6.07987e-07 
761.646 6.08148e-07 
762.177 6.08311e-07 
762.707 6.08473e-07 
763.237 6.08635e-07 
763.768 6.08798e-07 
764.298 6.08961e-07 
764.828 6.09124e-07 
765.358 6.09287e-07 
765.889 6.09451e-07 
766.419 6.09615e-07 
766.949 6.09779e-07 
767.479 6.09943e-07 
768.01 6.10108e-07 
768.54 6.10273e-07 
769.07 6.10438e-07 
769.601 6.10603e-07 
770.131 6.10769e-07 
770.661 6.10935e-07 
771.191 6.11101e-07 
771.722 6.11267e-07 
772.252 6.11434e-07 
772.782 6.11601e-07 
773.312 6.11768e-07 
773.843 6.11935e-07 
774.373 6.12103e-07 
774.903 6.12271e-07 
775.434 6.12439e-07 
775.964 6.12607e-07 
776.494 6.12776e-07 
777.024 6.12945e-07 
777.555 6.13114e-07 
778.085 6.13283e-07 
778.615 6.13452e-07 
779.146 6.13622e-07 
779.676 6.13793e-07 
780.206 6.13963e-07 
780.736 6.14134e-07 
781.267 6.14305e-07 
781.797 6.14476e-07 
782.327 6.14647e-07 
782.857 6.14819e-07 
783.388 6.14991e-07 
783.918 6.15164e-07 
784.448 6.15336e-07 
784.979 6.15509e-07 
785.509 6.15682e-07 
786.039 6.15855e-07 
786.569 6.16029e-07 
787.1 6.16203e-07 
787.63 6.16377e-07 
788.16 6.16551e-07 
788.69 6.16726e-07 
789.221 6.16901e-07 
789.751 6.17077e-07 
790.281 6.17252e-07 
790.812 6.17428e-07 
791.342 6.17604e-07 
791.872 6.1778e-07 
792.402 6.17957e-07 
792.933 6.18134e-07 
793.463 6.18311e-07 
793.993 6.18488e-07 
794.523 6.18666e-07 
795.054 6.18844e-07 
795.584 6.19022e-07 
796.114 6.19201e-07 
796.645 6.19379e-07 
797.175 6.19559e-07 
797.705 6.19738e-07 
798.235 6.19918e-07 
798.766 6.20098e-07 
799.296 6.20278e-07 
799.826 6.20459e-07 
800.356 6.20639e-07 
800.887 6.2082e-07 
801.417 6.21002e-07 
801.947 6.21184e-07 
802.478 6.21366e-07 
803.008 6.21548e-07 
803.538 6.21731e-07 
804.068 6.21914e-07 
804.599 6.22097e-07 
805.129 6.2228e-07 
805.659 6.22464e-07 
806.189 6.22648e-07 
806.72 6.22833e-07 
807.25 6.23017e-07 
807.78 6.23202e-07 
808.311 6.23387e-07 
808.841 6.23572e-07 
809.371 6.23759e-07 
809.901 6.23945e-07 
810.432 6.24131e-07 
810.962 6.24318e-07 
811.492 6.24505e-07 
812.022 6.24692e-07 
812.553 6.2488e-07 
813.083 6.25068e-07 
813.613 6.25256e-07 
814.144 6.25445e-07 
814.674 6.25633e-07 
815.204 6.25822e-07 
815.734 6.26012e-07 
816.265 6.26202e-07 
816.795 6.26392e-07 
817.325 6.26582e-07 
817.855 6.26773e-07 
818.386 6.26964e-07 
818.916 6.27155e-07 
819.446 6.27347e-07 
819.977 6.27539e-07 
820.507 6.27731e-07 
821.037 6.27924e-07 
821.567 6.28117e-07 
822.098 6.2831e-07 
822.628 6.28504e-07 
823.158 6.28697e-07 
823.688 6.28892e-07 
824.219 6.29086e-07 
824.749 6.29281e-07 
825.279 6.29476e-07 
825.81 6.29671e-07 
826.34 6.29867e-07 
826.87 6.30064e-07 
827.4 6.3026e-07 
827.931 6.30457e-07 
828.461 6.30654e-07 
828.991 6.30851e-07 
829.521 6.31049e-07 
830.052 6.31247e-07 
830.582 6.31446e-07 
831.112 6.31645e-07 
831.643 6.31843e-07 
832.173 6.32043e-07 
832.703 6.32243e-07 
833.233 6.32443e-07 
833.764 6.32643e-07 
834.294 6.32844e-07 
834.824 6.33045e-07 
835.354 6.33247e-07 
835.885 6.33449e-07 
836.415 6.33651e-07 
836.945 6.33853e-07 
837.476 6.34056e-07 
838.006 6.34259e-07 
838.536 6.34462e-07 
839.066 6.34666e-07 
839.597 6.3487e-07 
840.127 6.35075e-07 
840.657 6.35279e-07 
841.188 6.35485e-07 
841.718 6.35691e-07 
842.248 6.35896e-07 
842.778 6.36103e-07 
843.309 6.36309e-07 
843.839 6.36516e-07 
844.369 6.36723e-07 
844.899 6.36931e-07 
845.43 6.37139e-07 
845.96 6.37347e-07 
846.49 6.37556e-07 
847.021 6.37765e-07 
847.551 6.37975e-07 
848.081 6.38184e-07 
848.611 6.38394e-07 
849.142 6.38605e-07 
849.672 6.38816e-07 
850.202 6.39027e-07 
850.732 6.39239e-07 
851.263 6.39451e-07 
851.793 6.39663e-07 
852.323 6.39876e-07 
852.854 6.40089e-07 
853.384 6.40302e-07 
853.914 6.40516e-07 
854.444 6.4073e-07 
854.975 6.40945e-07 
855.505 6.41159e-07 
856.035 6.41375e-07 
856.565 6.4159e-07 
857.096 6.41807e-07 
857.626 6.42023e-07 
858.156 6.4224e-07 
858.687 6.42457e-07 
859.217 6.42674e-07 
859.747 6.42892e-07 
860.277 6.43111e-07 
860.808 6.43329e-07 
861.338 6.43548e-07 
861.868 6.43768e-07 
862.398 6.43987e-07 
862.929 6.44207e-07 
863.459 6.44428e-07 
863.989 6.44649e-07 
864.52 6.4487e-07 
865.05 6.45092e-07 
865.58 6.45314e-07 
866.11 6.45537e-07 
866.641 6.4576e-07 
867.171 6.45983e-07 
867.701 6.46207e-07 
868.231 6.46431e-07 
868.762 6.46655e-07 
869.292 6.4688e-07 
869.822 6.47105e-07 
870.353 6.47331e-07 
870.883 6.47557e-07 
871.413 6.47784e-07 
871.943 6.4801e-07 
872.474 6.48238e-07 
873.004 6.48465e-07 
873.534 6.48693e-07 
874.064 6.48922e-07 
874.595 6.49151e-07 
875.125 6.4938e-07 
875.655 6.4961e-07 
876.186 6.4984e-07 
876.716 6.5007e-07 
877.246 6.50301e-07 
877.776 6.50533e-07 
878.307 6.50764e-07 
878.837 6.50997e-07 
879.367 6.51229e-07 
879.897 6.51462e-07 
880.428 6.51695e-07 
880.958 6.51929e-07 
881.488 6.52163e-07 
882.019 6.52398e-07 
882.549 6.52633e-07 
883.079 6.52868e-07 
883.609 6.53104e-07 
884.14 6.53341e-07 
884.67 6.53577e-07 
885.2 6.53815e-07 
885.73 6.54052e-07 
886.261 6.5429e-07 
886.791 6.54529e-07 
887.321 6.54768e-07 
887.852 6.55007e-07 
888.382 6.55247e-07 
888.912 6.55487e-07 
889.442 6.55727e-07 
889.973 6.55969e-07 
890.503 6.5621e-07 
891.033 6.56452e-07 
891.563 6.56694e-07 
892.094 6.56937e-07 
892.624 6.57181e-07 
893.154 6.57424e-07 
893.685 6.57669e-07 
894.215 6.57913e-07 
894.745 6.58158e-07 
895.275 6.58404e-07 
895.806 6.5865e-07 
896.336 6.58896e-07 
896.866 6.59142e-07 
897.396 6.5939e-07 
897.927 6.59638e-07 
898.457 6.59886e-07 
898.987 6.60134e-07 
899.518 6.60383e-07 
900.048 6.60633e-07 
900.578 6.60883e-07 
901.108 6.61133e-07 
901.639 6.61384e-07 
902.169 6.61635e-07 
902.699 6.61887e-07 
903.229 6.62139e-07 
903.76 6.62392e-07 
904.29 6.62645e-07 
904.82 6.62899e-07 
905.351 6.63153e-07 
905.881 6.63408e-07 
906.411 6.63663e-07 
906.941 6.63919e-07 
907.472 6.64175e-07 
908.002 6.64431e-07 
908.532 6.64688e-07 
909.062 6.64946e-07 
