#energy geo_1 
400 4.02685e-06 
400.53 4.02558e-06 
401.061 4.02421e-06 
401.591 4.02276e-06 
402.121 4.02125e-06 
402.651 4.0197e-06 
403.182 4.01816e-06 
403.712 4.01666e-06 
404.242 4.01527e-06 
404.772 4.01405e-06 
405.303 4.01309e-06 
405.833 4.0125e-06 
406.363 4.01242e-06 
406.894 4.01305e-06 
407.424 4.01464e-06 
407.954 4.0175e-06 
408.484 4.02211e-06 
409.015 4.02912e-06 
409.545 4.03944e-06 
410.075 4.05445e-06 
410.605 4.07627e-06 
411.136 4.10826e-06 
411.666 4.15608e-06 
412.196 4.22978e-06 
412.727 4.34852e-06 
413.257 4.55232e-06 
413.787 4.93418e-06 
414.317 5.73874e-06 
414.848 7.63947e-06 
415.378 1.12149e-05 
415.908 1.05985e-05 
416.438 7.20369e-06 
416.969 5.55322e-06 
417.499 4.83932e-06 
418.029 4.49153e-06 
418.56 4.30121e-06 
419.09 4.18744e-06 
419.62 4.11483e-06 
420.15 4.0662e-06 
420.681 4.0324e-06 
421.211 4.00828e-06 
421.741 3.99071e-06 
422.271 3.97776e-06 
422.802 3.96813e-06 
423.332 3.96098e-06 
423.862 3.95568e-06 
424.393 3.95183e-06 
424.923 3.9491e-06 
425.453 3.94728e-06 
425.983 3.94617e-06 
426.514 3.94566e-06 
427.044 3.94563e-06 
427.574 3.94601e-06 
428.104 3.94672e-06 
428.635 3.94773e-06 
429.165 3.94898e-06 
429.695 3.95044e-06 
430.226 3.95208e-06 
430.756 3.95388e-06 
431.286 3.95582e-06 
431.816 3.95787e-06 
432.347 3.96004e-06 
432.877 3.96229e-06 
433.407 3.96462e-06 
433.938 3.96703e-06 
434.468 3.9695e-06 
434.998 3.97202e-06 
435.528 3.9746e-06 
436.059 3.97721e-06 
436.589 3.97986e-06 
437.119 3.98254e-06 
437.649 3.98524e-06 
438.18 3.98797e-06 
438.71 3.9907e-06 
439.24 3.99345e-06 
439.771 3.9962e-06 
440.301 3.99895e-06 
440.831 4.0017e-06 
441.361 4.00444e-06 
441.892 4.00717e-06 
442.422 4.00987e-06 
442.952 4.01256e-06 
443.482 4.01521e-06 
444.013 4.01783e-06 
444.543 4.02041e-06 
445.073 4.02295e-06 
445.604 4.02544e-06 
446.134 4.02787e-06 
446.664 4.03024e-06 
447.194 4.03254e-06 
447.725 4.03476e-06 
448.255 4.03691e-06 
448.785 4.03897e-06 
449.315 4.04094e-06 
449.846 4.04281e-06 
450.376 4.04457e-06 
450.906 4.04621e-06 
451.437 4.04774e-06 
451.967 4.04914e-06 
452.497 4.05041e-06 
453.027 4.05154e-06 
453.558 4.05254e-06 
454.088 4.05338e-06 
454.618 4.05407e-06 
455.148 4.05461e-06 
455.679 4.05501e-06 
456.209 4.05524e-06 
456.739 4.05532e-06 
457.27 4.05526e-06 
457.8 4.05506e-06 
458.33 4.05474e-06 
458.86 4.05431e-06 
459.391 4.0538e-06 
459.921 4.05324e-06 
460.451 4.05267e-06 
460.981 4.05214e-06 
461.512 4.05174e-06 
462.042 4.05154e-06 
462.572 4.05164e-06 
463.103 4.05221e-06 
463.633 4.05344e-06 
464.163 4.05555e-06 
464.693 4.05886e-06 
465.224 4.06377e-06 
465.754 4.07081e-06 
466.284 4.08063e-06 
466.814 4.09405e-06 
467.345 4.11212e-06 
467.875 4.13598e-06 
468.405 4.16675e-06 
468.936 4.20512e-06 
469.466 4.25037e-06 
469.996 4.29894e-06 
470.526 4.34304e-06 
471.057 4.37119e-06 
471.587 4.37271e-06 
472.117 4.34435e-06 
472.647 4.29281e-06 
473.178 4.23011e-06 
473.708 4.16708e-06 
474.238 4.11038e-06 
474.769 4.06298e-06 
475.299 4.02568e-06 
475.829 3.9984e-06 
476.359 3.98111e-06 
476.89 3.9742e-06 
477.42 3.9789e-06 
477.95 3.99753e-06 
478.48 4.03421e-06 
479.011 4.09588e-06 
479.541 4.19437e-06 
480.071 4.35062e-06 
480.602 4.60403e-06 
481.132 5.03513e-06 
481.662 5.8263e-06 
482.192 7.44514e-06 
482.723 1.1189e-05 
483.253 1.90635e-05 
483.783 2.09129e-05 
484.313 1.31896e-05 
484.844 8.42787e-06 
485.374 6.33561e-06 
485.904 5.33744e-06 
486.435 4.78417e-06 
486.965 4.43706e-06 
487.495 4.20027e-06 
488.025 4.03036e-06 
488.556 3.90464e-06 
489.086 3.80961e-06 
489.616 3.73657e-06 
490.146 3.67962e-06 
490.677 3.63462e-06 
491.207 3.59866e-06 
491.737 3.56961e-06 
492.268 3.54592e-06 
492.798 3.52646e-06 
493.328 3.51035e-06 
493.858 3.49695e-06 
494.389 3.48574e-06 
494.919 3.47633e-06 
495.449 3.46842e-06 
495.979 3.46176e-06 
496.51 3.45615e-06 
497.04 3.45142e-06 
497.57 3.44746e-06 
498.101 3.44416e-06 
498.631 3.44141e-06 
499.161 3.43916e-06 
499.691 3.43734e-06 
500.222 3.43589e-06 
500.752 3.43478e-06 
501.282 3.43396e-06 
501.812 3.43341e-06 
502.343 3.43309e-06 
502.873 3.43297e-06 
503.403 3.43305e-06 
503.934 3.4333e-06 
504.464 3.4337e-06 
504.994 3.43424e-06 
505.524 3.43491e-06 
506.055 3.43569e-06 
506.585 3.43658e-06 
507.115 3.43758e-06 
507.646 3.43865e-06 
508.176 3.43982e-06 
508.706 3.44106e-06 
509.236 3.44237e-06 
509.767 3.44374e-06 
510.297 3.44518e-06 
510.827 3.44667e-06 
511.357 3.44821e-06 
511.888 3.4498e-06 
512.418 3.45144e-06 
512.948 3.45312e-06 
513.479 3.45484e-06 
514.009 3.45659e-06 
514.539 3.45838e-06 
515.069 3.46019e-06 
515.6 3.46204e-06 
516.13 3.46391e-06 
516.66 3.4658e-06 
517.19 3.46772e-06 
517.721 3.46965e-06 
518.251 3.4716e-06 
518.781 3.47357e-06 
519.312 3.47555e-06 
519.842 3.47754e-06 
520.372 3.47954e-06 
520.902 3.48154e-06 
521.433 3.48356e-06 
521.963 3.48557e-06 
522.493 3.48758e-06 
523.023 3.4896e-06 
523.554 3.49161e-06 
524.084 3.49362e-06 
524.614 3.49562e-06 
525.145 3.49761e-06 
525.675 3.49959e-06 
526.205 3.50155e-06 
526.735 3.5035e-06 
527.266 3.50544e-06 
527.796 3.50735e-06 
528.326 3.50924e-06 
528.856 3.51112e-06 
529.387 3.51296e-06 
529.917 3.51478e-06 
530.447 3.51657e-06 
530.978 3.51833e-06 
531.508 3.52007e-06 
532.038 3.52177e-06 
532.568 3.52344e-06 
533.099 3.52507e-06 
533.629 3.52667e-06 
534.159 3.52824e-06 
534.689 3.52979e-06 
535.22 3.5313e-06 
535.75 3.53278e-06 
536.28 3.53424e-06 
536.811 3.53568e-06 
537.341 3.5371e-06 
537.871 3.53852e-06 
538.401 3.53994e-06 
538.932 3.54137e-06 
539.462 3.54282e-06 
539.992 3.54431e-06 
540.522 3.54586e-06 
541.053 3.54748e-06 
541.583 3.54921e-06 
542.113 3.55106e-06 
542.644 3.55308e-06 
543.174 3.55532e-06 
543.704 3.55781e-06 
544.234 3.56063e-06 
544.765 3.56384e-06 
545.295 3.56755e-06 
545.825 3.57184e-06 
546.355 3.57686e-06 
546.886 3.58277e-06 
547.416 3.58976e-06 
547.946 3.59809e-06 
548.477 3.60804e-06 
549.007 3.62002e-06 
549.537 3.63449e-06 
550.067 3.65208e-06 
550.598 3.67356e-06 
551.128 3.69992e-06 
551.658 3.73242e-06 
552.188 3.77262e-06 
552.719 3.82241e-06 
553.249 3.88388e-06 
553.779 3.95902e-06 
554.31 4.04893e-06 
554.84 4.15239e-06 
555.37 4.26415e-06 
555.9 4.37439e-06 
556.431 4.47152e-06 
556.961 4.54778e-06 
557.491 4.60129e-06 
558.021 4.6308e-06 
558.552 4.62959e-06 
559.082 4.58833e-06 
559.612 4.50545e-06 
560.143 4.39238e-06 
560.673 4.26776e-06 
561.203 4.14797e-06 
561.733 4.04254e-06 
562.264 3.95489e-06 
562.794 3.88476e-06 
563.324 3.8304e-06 
563.854 3.78976e-06 
564.385 3.76107e-06 
564.915 3.74303e-06 
565.445 3.73489e-06 
565.976 3.73641e-06 
566.506 3.74784e-06 
567.036 3.76982e-06 
567.566 3.80319e-06 
568.097 3.84857e-06 
568.627 3.90552e-06 
569.157 3.97139e-06 
569.688 4.04039e-06 
570.218 4.10451e-06 
570.748 4.15681e-06 
571.278 4.19441e-06 
571.809 4.21675e-06 
572.339 4.22079e-06 
572.869 4.20004e-06 
573.399 4.15038e-06 
573.93 4.07604e-06 
574.46 3.98849e-06 
574.99 3.90005e-06 
575.521 3.81911e-06 
576.051 3.74934e-06 
576.581 3.69123e-06 
577.111 3.64363e-06 
577.642 3.60492e-06 
578.172 3.57346e-06 
578.702 3.54784e-06 
579.232 3.52688e-06 
579.763 3.50967e-06 
580.293 3.49547e-06 
580.823 3.48371e-06 
581.354 3.47396e-06 
581.884 3.46584e-06 
582.414 3.45908e-06 
582.944 3.45347e-06 
583.475 3.4488e-06 
584.005 3.44495e-06 
584.535 3.44179e-06 
585.065 3.43922e-06 
585.596 3.43716e-06 
586.126 3.43555e-06 
586.656 3.43433e-06 
587.187 3.43344e-06 
587.717 3.43286e-06 
588.247 3.43254e-06 
588.777 3.43246e-06 
589.308 3.43259e-06 
589.838 3.4329e-06 
590.368 3.43339e-06 
590.898 3.43402e-06 
591.429 3.43479e-06 
591.959 3.43568e-06 
592.489 3.43669e-06 
593.02 3.4378e-06 
593.55 3.43899e-06 
594.08 3.44028e-06 
594.61 3.44163e-06 
595.141 3.44306e-06 
595.671 3.44455e-06 
596.201 3.4461e-06 
596.731 3.4477e-06 
597.262 3.44934e-06 
597.792 3.45103e-06 
598.322 3.45276e-06 
598.853 3.45452e-06 
599.383 3.45631e-06 
599.913 3.45814e-06 
600.443 3.45998e-06 
600.974 3.46185e-06 
601.504 3.46375e-06 
602.034 3.46565e-06 
602.564 3.46757e-06 
603.095 3.46951e-06 
603.625 3.47146e-06 
604.155 3.47342e-06 
604.686 3.4754e-06 
605.216 3.47737e-06 
605.746 3.47936e-06 
606.276 3.48135e-06 
606.807 3.48336e-06 
607.337 3.48537e-06 
607.867 3.48739e-06 
608.397 3.48942e-06 
608.928 3.49147e-06 
609.458 3.49353e-06 
609.988 3.49561e-06 
610.519 3.49772e-06 
611.049 3.49986e-06 
611.579 3.50203e-06 
612.109 3.50425e-06 
612.64 3.50652e-06 
613.17 3.50886e-06 
613.7 3.51129e-06 
614.23 3.51381e-06 
614.761 3.51645e-06 
615.291 3.51923e-06 
615.821 3.52219e-06 
616.352 3.52536e-06 
616.882 3.52878e-06 
617.412 3.5325e-06 
617.942 3.53659e-06 
618.473 3.54113e-06 
619.003 3.5462e-06 
619.533 3.55194e-06 
620.063 3.55848e-06 
620.594 3.56601e-06 
621.124 3.57476e-06 
621.654 3.58503e-06 
622.185 3.59719e-06 
622.715 3.61173e-06 
623.245 3.62927e-06 
623.775 3.65058e-06 
624.306 3.67667e-06 
624.836 3.70874e-06 
625.366 3.74815e-06 
625.896 3.79621e-06 
626.427 3.85364e-06 
626.957 3.91949e-06 
627.487 3.98941e-06 
628.018 4.05403e-06 
628.548 4.09973e-06 
629.078 4.11388e-06 
629.608 4.09253e-06 
630.139 4.04312e-06 
630.669 3.97935e-06 
631.199 3.91377e-06 
631.729 3.85416e-06 
632.26 3.80371e-06 
632.79 3.76285e-06 
633.32 3.73068e-06 
633.851 3.70597e-06 
634.381 3.68752e-06 
634.911 3.67432e-06 
635.441 3.66567e-06 
635.972 3.66105e-06 
636.502 3.66021e-06 
637.032 3.66309e-06 
637.562 3.66984e-06 
638.093 3.68082e-06 
638.623 3.69658e-06 
639.153 3.71786e-06 
639.684 3.74549e-06 
640.214 3.78008e-06 
640.744 3.82146e-06 
641.274 3.86762e-06 
641.805 3.91347e-06 
642.335 3.9504e-06 
642.865 3.9687e-06 
643.396 3.96261e-06 
643.926 3.93426e-06 
644.456 3.89199e-06 
644.986 3.84532e-06 
645.517 3.80104e-06 
646.047 3.76248e-06 
646.577 3.73052e-06 
647.107 3.70474e-06 
647.638 3.68427e-06 
648.168 3.66814e-06 
648.698 3.65552e-06 
649.229 3.64568e-06 
649.759 3.63808e-06 
650.289 3.63226e-06 
650.819 3.62788e-06 
651.35 3.62467e-06 
651.88 3.62242e-06 
652.41 3.62096e-06 
652.94 3.62015e-06 
653.471 3.6199e-06 
654.001 3.62011e-06 
654.531 3.62072e-06 
655.062 3.62168e-06 
655.592 3.62292e-06 
656.122 3.62443e-06 
656.652 3.62616e-06 
657.183 3.62808e-06 
657.713 3.63019e-06 
658.243 3.63245e-06 
658.773 3.63485e-06 
659.304 3.63738e-06 
659.834 3.64003e-06 
660.364 3.64278e-06 
660.895 3.64563e-06 
661.425 3.64857e-06 
661.955 3.65159e-06 
662.485 3.65469e-06 
663.016 3.65786e-06 
663.546 3.66109e-06 
664.076 3.66439e-06 
664.606 3.66775e-06 
665.137 3.67117e-06 
665.667 3.67464e-06 
666.197 3.67816e-06 
666.728 3.68173e-06 
667.258 3.68535e-06 
667.788 3.68902e-06 
668.318 3.69273e-06 
668.849 3.69648e-06 
669.379 3.70027e-06 
669.909 3.70411e-06 
670.439 3.70798e-06 
670.97 3.71189e-06 
671.5 3.71585e-06 
672.03 3.71984e-06 
672.561 3.72386e-06 
673.091 3.72793e-06 
673.621 3.73203e-06 
674.151 3.73617e-06 
674.682 3.74034e-06 
675.212 3.74454e-06 
675.742 3.74879e-06 
676.272 3.75307e-06 
676.803 3.75737e-06 
677.333 3.76172e-06 
677.863 3.76611e-06 
678.394 3.77053e-06 
678.924 3.77498e-06 
679.454 3.77946e-06 
679.984 3.78399e-06 
680.515 3.78854e-06 
681.045 3.79313e-06 
681.575 3.79776e-06 
682.105 3.80242e-06 
682.636 3.80712e-06 
683.166 3.81185e-06 
683.696 3.81662e-06 
684.227 3.82143e-06 
684.757 3.82627e-06 
685.287 3.83114e-06 
685.817 3.83606e-06 
686.348 3.84101e-06 
686.878 3.84599e-06 
687.408 3.85102e-06 
687.938 3.85608e-06 
688.469 3.86117e-06 
688.999 3.8663e-06 
689.529 3.87148e-06 
690.06 3.87669e-06 
690.59 3.88193e-06 
691.12 3.88721e-06 
691.65 3.89253e-06 
692.181 3.89788e-06 
692.711 3.90327e-06 
693.241 3.9087e-06 
693.771 3.91416e-06 
694.302 3.91965e-06 
694.832 3.92518e-06 
695.362 3.93075e-06 
695.893 3.93634e-06 
696.423 3.94196e-06 
696.953 3.94761e-06 
697.483 3.9533e-06 
698.014 3.95901e-06 
698.544 3.96474e-06 
699.074 3.97049e-06 
699.604 3.97627e-06 
700.135 3.98207e-06 
700.665 3.98787e-06 
701.195 3.99369e-06 
701.726 3.99952e-06 
702.256 4.00535e-06 
702.786 4.01119e-06 
703.316 4.01701e-06 
703.847 4.02283e-06 
704.377 4.02863e-06 
704.907 4.03441e-06 
705.438 4.04017e-06 
705.968 4.04588e-06 
706.498 4.05156e-06 
707.028 4.05718e-06 
707.559 4.06274e-06 
708.089 4.06823e-06 
708.619 4.07364e-06 
709.149 4.07896e-06 
709.68 4.08418e-06 
710.21 4.08928e-06 
710.74 4.09425e-06 
711.271 4.09907e-06 
711.801 4.10373e-06 
712.331 4.10821e-06 
712.861 4.1125e-06 
713.392 4.11657e-06 
713.922 4.12041e-06 
714.452 4.124e-06 
714.982 4.12731e-06 
715.513 4.13032e-06 
716.043 4.13301e-06 
716.573 4.13534e-06 
717.104 4.1373e-06 
717.634 4.13886e-06 
718.164 4.13998e-06 
718.694 4.14064e-06 
719.225 4.1408e-06 
719.755 4.14044e-06 
720.285 4.13953e-06 
720.815 4.13802e-06 
721.346 4.13588e-06 
721.876 4.13309e-06 
722.406 4.1296e-06 
722.937 4.12536e-06 
723.467 4.12036e-06 
723.997 4.11457e-06 
724.527 4.10793e-06 
725.058 4.1004e-06 
725.588 4.09197e-06 
726.118 4.08261e-06 
726.648 4.07226e-06 
727.179 4.0609e-06 
727.709 4.04852e-06 
728.239 4.03511e-06 
728.77 4.02062e-06 
729.3 4.00503e-06 
729.83 3.9884e-06 
730.36 3.97069e-06 
730.891 3.95189e-06 
731.421 3.93207e-06 
731.951 3.91129e-06 
732.481 3.88956e-06 
733.012 3.86695e-06 
733.542 3.84362e-06 
734.072 3.81975e-06 
734.603 3.79547e-06 
735.133 3.77103e-06 
735.663 3.74682e-06 
736.193 3.72326e-06 
736.724 3.70086e-06 
737.254 3.68039e-06 
737.784 3.6629e-06 
738.314 3.64968e-06 
738.845 3.64255e-06 
739.375 3.64417e-06 
739.905 3.6583e-06 
740.436 3.69042e-06 
740.966 3.74895e-06 
741.496 3.84736e-06 
742.026 4.00796e-06 
742.557 4.26997e-06 
743.087 4.70758e-06 
743.617 5.47356e-06 
744.147 6.91839e-06 
744.678 9.95115e-06 
745.208 1.70484e-05 
745.738 3.06083e-05 
746.269 3.27446e-05 
746.799 2.12369e-05 
747.329 1.17583e-05 
747.859 7.48482e-06 
748.39 5.49341e-06 
748.92 4.43561e-06 
749.45 3.8093e-06 
749.98 3.40716e-06 
750.511 3.13336e-06 
751.041 2.93953e-06 
751.571 2.79987e-06 
752.102 2.70026e-06 
752.632 2.63346e-06 
753.162 2.59686e-06 
753.692 2.59159e-06 
754.223 2.62254e-06 
754.753 2.69955e-06 
755.283 2.8399e-06 
755.813 3.07334e-06 
756.344 3.45268e-06 
756.874 4.07695e-06 
757.404 5.14706e-06 
757.935 7.11365e-06 
758.465 1.11168e-05 
758.995 2.02948e-05 
759.525 3.98605e-05 
760.056 4.97147e-05 
760.586 3.43495e-05 
761.116 1.77012e-05 
761.646 9.83603e-06 
762.177 6.28334e-06 
762.707 4.4634e-06 
763.237 3.42147e-06 
763.768 2.7725e-06 
764.298 2.3417e-06 
764.828 2.04124e-06 
765.358 1.82332e-06 
765.889 1.66017e-06 
766.419 1.53477e-06 
766.949 1.43624e-06 
767.479 1.35736e-06 
768.01 1.29319e-06 
768.54 1.24025e-06 
769.07 1.19604e-06 
769.601 1.15872e-06 
770.131 1.12692e-06 
770.661 1.09958e-06 
771.191 1.0759e-06 
771.722 1.05524e-06 
772.252 1.03711e-06 
772.782 1.02111e-06 
773.312 1.00691e-06 
773.843 9.94256e-07 
774.373 9.82924e-07 
774.903 9.72736e-07 
775.434 9.63545e-07 
775.964 9.55224e-07 
776.494 9.47667e-07 
777.024 9.40784e-07 
777.555 9.345e-07 
778.085 9.28745e-07 
778.615 9.23466e-07 
779.146 9.1861e-07 
779.676 9.14137e-07 
780.206 9.10006e-07 
780.736 9.06187e-07 
781.267 9.0265e-07 
781.797 8.99368e-07 
782.327 8.9632e-07 
782.857 8.93484e-07 
783.388 8.90844e-07 
783.918 8.88382e-07 
784.448 8.86083e-07 
784.979 8.83937e-07 
785.509 8.81929e-07 
786.039 8.8005e-07 
786.569 8.7829e-07 
787.1 8.7664e-07 
787.63 8.75092e-07 
788.16 8.73639e-07 
788.69 8.72275e-07 
789.221 8.70992e-07 
789.751 8.69786e-07 
790.281 8.68651e-07 
790.812 8.67582e-07 
791.342 8.66576e-07 
791.872 8.65627e-07 
792.402 8.64732e-07 
792.933 8.63888e-07 
793.463 8.63091e-07 
793.993 8.62338e-07 
794.523 8.61626e-07 
795.054 8.60953e-07 
795.584 8.60315e-07 
796.114 8.59711e-07 
796.645 8.59138e-07 
797.175 8.58594e-07 
797.705 8.58077e-07 
798.235 8.57585e-07 
798.766 8.57116e-07 
799.296 8.56668e-07 
799.826 8.5624e-07 
800.356 8.5583e-07 
800.887 8.55437e-07 
801.417 8.55059e-07 
801.947 8.54695e-07 
802.478 8.54343e-07 
803.008 8.54003e-07 
803.538 8.53673e-07 
804.068 8.53353e-07 
804.599 8.53041e-07 
805.129 8.52737e-07 
805.659 8.52439e-07 
806.189 8.52148e-07 
806.72 8.51863e-07 
807.25 8.51584e-07 
807.78 8.5131e-07 
808.311 8.51041e-07 
808.841 8.50779e-07 
809.371 8.50522e-07 
809.901 8.50272e-07 
810.432 8.50031e-07 
810.962 8.49798e-07 
811.492 8.49577e-07 
812.022 8.49369e-07 
812.553 8.49176e-07 
813.083 8.49003e-07 
813.613 8.48854e-07 
814.144 8.48732e-07 
814.674 8.48643e-07 
815.204 8.48596e-07 
815.734 8.48596e-07 
816.265 8.48656e-07 
816.795 8.48785e-07 
817.325 8.48998e-07 
817.855 8.49312e-07 
818.386 8.49745e-07 
818.916 8.50323e-07 
819.446 8.51074e-07 
819.977 8.52034e-07 
820.507 8.53246e-07 
821.037 8.54762e-07 
821.567 8.56649e-07 
822.098 8.58988e-07 
822.628 8.61882e-07 
823.158 8.65461e-07 
823.688 8.69889e-07 
824.219 8.75377e-07 
824.749 8.82194e-07 
825.279 8.90685e-07 
825.81 9.01289e-07 
826.34 9.14558e-07 
826.87 9.31157e-07 
827.4 9.51832e-07 
827.931 9.7728e-07 
828.461 1.00783e-06 
828.991 1.04283e-06 
829.521 1.07968e-06 
830.052 1.11306e-06 
830.582 1.13553e-06 
831.112 1.1405e-06 
831.643 1.12621e-06 
832.173 1.09691e-06 
832.703 1.06004e-06 
833.233 1.02232e-06 
833.764 9.87834e-07 
834.294 9.58245e-07 
834.824 9.33698e-07 
835.354 9.13659e-07 
835.885 8.97389e-07 
836.415 8.84173e-07 
836.945 8.73393e-07 
837.476 8.64549e-07 
838.006 8.57246e-07 
838.536 8.51174e-07 
839.066 8.46092e-07 
839.597 8.41812e-07 
840.127 8.38185e-07 
840.657 8.35095e-07 
841.188 8.3245e-07 
841.718 8.30175e-07 
842.248 8.28211e-07 
842.778 8.26511e-07 
843.309 8.25034e-07 
843.839 8.23748e-07 
844.369 8.22627e-07 
844.899 8.21648e-07 
845.43 8.20793e-07 
845.96 8.20046e-07 
846.49 8.19393e-07 
847.021 8.18824e-07 
847.551 8.18329e-07 
848.081 8.17899e-07 
848.611 8.17528e-07 
849.142 8.17208e-07 
849.672 8.16936e-07 
850.202 8.16706e-07 
850.732 8.16514e-07 
851.263 8.16356e-07 
851.793 8.16229e-07 
852.323 8.16131e-07 
852.854 8.16059e-07 
853.384 8.1601e-07 
853.914 8.15983e-07 
854.444 8.15976e-07 
854.975 8.15986e-07 
855.505 8.16013e-07 
856.035 8.16055e-07 
856.565 8.16112e-07 
857.096 8.16182e-07 
857.626 8.16263e-07 
858.156 8.16355e-07 
858.687 8.16457e-07 
859.217 8.16568e-07 
859.747 8.16688e-07 
860.277 8.16816e-07 
860.808 8.16951e-07 
861.338 8.17092e-07 
861.868 8.17239e-07 
862.398 8.17391e-07 
862.929 8.17547e-07 
863.459 8.17708e-07 
863.989 8.17873e-07 
864.52 8.18041e-07 
865.05 8.18212e-07 
865.58 8.18386e-07 
866.11 8.18561e-07 
866.641 8.18738e-07 
867.171 8.18915e-07 
867.701 8.19094e-07 
868.231 8.19273e-07 
868.762 8.19453e-07 
869.292 8.19632e-07 
869.822 8.19811e-07 
870.353 8.19989e-07 
870.883 8.20166e-07 
871.413 8.20342e-07 
871.943 8.20517e-07 
872.474 8.2069e-07 
873.004 8.20862e-07 
873.534 8.21032e-07 
874.064 8.21201e-07 
874.595 8.21368e-07 
875.125 8.21533e-07 
875.655 8.21699e-07 
876.186 8.21863e-07 
876.716 8.22027e-07 
877.246 8.22191e-07 
877.776 8.22357e-07 
878.307 8.22524e-07 
878.837 8.22695e-07 
879.367 8.2287e-07 
879.897 8.23052e-07 
880.428 8.23242e-07 
880.958 8.23442e-07 
881.488 8.23656e-07 
882.019 8.23886e-07 
882.549 8.24137e-07 
883.079 8.24412e-07 
883.609 8.24719e-07 
884.14 8.25062e-07 
884.67 8.2545e-07 
885.2 8.25893e-07 
885.73 8.26401e-07 
886.261 8.26988e-07 
886.791 8.2767e-07 
887.321 8.28468e-07 
887.852 8.29405e-07 
888.382 8.30512e-07 
888.912 8.31828e-07 
889.442 8.33398e-07 
889.973 8.35282e-07 
890.503 8.37555e-07 
891.033 8.40314e-07 
891.563 8.43681e-07 
892.094 8.47812e-07 
892.624 8.52908e-07 
893.154 8.59223e-07 
893.685 8.67067e-07 
894.215 8.76799e-07 
894.745 8.88786e-07 
895.275 9.0328e-07 
895.806 9.20168e-07 
896.336 9.38555e-07 
896.866 9.56298e-07 
897.396 9.69977e-07 
897.927 9.75956e-07 
898.457 9.72351e-07 
898.987 9.60284e-07 
899.518 9.43112e-07 
900.048 9.24465e-07 
900.578 9.06866e-07 
901.108 8.91516e-07 
901.639 8.78695e-07 
902.169 8.68224e-07 
902.699 8.59753e-07 
903.229 8.52915e-07 
903.76 8.47385e-07 
904.29 8.42896e-07 
904.82 8.39235e-07 
905.351 8.36233e-07 
905.881 8.3376e-07 
906.411 8.31714e-07 
906.941 8.30015e-07 
907.472 8.28602e-07 
908.002 8.27423e-07 
908.532 8.2644e-07 
