#energy geo_1 
400 4.27316e-06 
400.53 4.2746e-06 
401.061 4.27606e-06 
401.591 4.27755e-06 
402.121 4.27909e-06 
402.651 4.28069e-06 
403.182 4.28234e-06 
403.712 4.28407e-06 
404.242 4.2859e-06 
404.772 4.28784e-06 
405.303 4.28993e-06 
405.833 4.29219e-06 
406.363 4.29466e-06 
406.894 4.29741e-06 
407.424 4.3005e-06 
407.954 4.30401e-06 
408.484 4.30806e-06 
409.015 4.3128e-06 
409.545 4.31839e-06 
410.075 4.32506e-06 
410.605 4.33303e-06 
411.136 4.3425e-06 
411.666 4.3535e-06 
412.196 4.36569e-06 
412.727 4.37801e-06 
413.257 4.38854e-06 
413.787 4.39486e-06 
414.317 4.39529e-06 
414.848 4.39003e-06 
415.378 4.38104e-06 
415.908 4.3707e-06 
416.438 4.36077e-06 
416.969 4.35215e-06 
417.499 4.34508e-06 
418.029 4.33948e-06 
418.56 4.33514e-06 
419.09 4.33184e-06 
419.62 4.32937e-06 
420.15 4.32756e-06 
420.681 4.32628e-06 
421.211 4.32542e-06 
421.741 4.32491e-06 
422.271 4.32467e-06 
422.802 4.32466e-06 
423.332 4.32486e-06 
423.862 4.32522e-06 
424.393 4.32573e-06 
424.923 4.32637e-06 
425.453 4.32715e-06 
425.983 4.32804e-06 
426.514 4.32907e-06 
427.044 4.33022e-06 
427.574 4.3315e-06 
428.104 4.33294e-06 
428.635 4.33455e-06 
429.165 4.33635e-06 
429.695 4.33837e-06 
430.226 4.34066e-06 
430.756 4.34326e-06 
431.286 4.34624e-06 
431.816 4.34967e-06 
432.347 4.35367e-06 
432.877 4.35837e-06 
433.407 4.36392e-06 
433.938 4.37056e-06 
434.468 4.37857e-06 
434.998 4.38829e-06 
435.528 4.40017e-06 
436.059 4.41475e-06 
436.589 4.43258e-06 
437.119 4.45418e-06 
437.649 4.47964e-06 
438.18 4.50813e-06 
438.71 4.53707e-06 
439.24 4.56169e-06 
439.771 4.57597e-06 
440.301 4.57563e-06 
440.831 4.56105e-06 
441.361 4.53697e-06 
441.892 4.50934e-06 
442.422 4.48265e-06 
442.952 4.45917e-06 
443.482 4.43958e-06 
444.013 4.4237e-06 
444.543 4.41101e-06 
445.073 4.40094e-06 
445.604 4.39297e-06 
446.134 4.38669e-06 
446.664 4.38173e-06 
447.194 4.37783e-06 
447.725 4.37479e-06 
448.255 4.37243e-06 
448.785 4.37062e-06 
449.315 4.36927e-06 
449.846 4.36829e-06 
450.376 4.36763e-06 
450.906 4.36722e-06 
451.437 4.36703e-06 
451.967 4.36703e-06 
452.497 4.36719e-06 
453.027 4.36748e-06 
453.558 4.36789e-06 
454.088 4.3684e-06 
454.618 4.369e-06 
455.148 4.36968e-06 
455.679 4.37042e-06 
456.209 4.37123e-06 
456.739 4.37208e-06 
457.27 4.37299e-06 
457.8 4.37394e-06 
458.33 4.37492e-06 
458.86 4.37594e-06 
459.391 4.37699e-06 
459.921 4.37807e-06 
460.451 4.37917e-06 
460.981 4.38029e-06 
461.512 4.38144e-06 
462.042 4.38261e-06 
462.572 4.38379e-06 
463.103 4.38499e-06 
463.633 4.38621e-06 
464.163 4.38743e-06 
464.693 4.38868e-06 
465.224 4.38993e-06 
465.754 4.3912e-06 
466.284 4.39247e-06 
466.814 4.39375e-06 
467.345 4.39505e-06 
467.875 4.39635e-06 
468.405 4.39766e-06 
468.936 4.39898e-06 
469.466 4.40031e-06 
469.996 4.40164e-06 
470.526 4.40298e-06 
471.057 4.40432e-06 
471.587 4.40567e-06 
472.117 4.40703e-06 
472.647 4.40839e-06 
473.178 4.40975e-06 
473.708 4.41112e-06 
474.238 4.4125e-06 
474.769 4.41388e-06 
475.299 4.41526e-06 
475.829 4.41665e-06 
476.359 4.41804e-06 
476.89 4.41944e-06 
477.42 4.42084e-06 
477.95 4.42224e-06 
478.48 4.42364e-06 
479.011 4.42505e-06 
479.541 4.42647e-06 
480.071 4.42788e-06 
480.602 4.4293e-06 
481.132 4.43072e-06 
481.662 4.43215e-06 
482.192 4.43357e-06 
482.723 4.435e-06 
483.253 4.43643e-06 
483.783 4.43787e-06 
484.313 4.43931e-06 
484.844 4.44075e-06 
485.374 4.44219e-06 
485.904 4.44363e-06 
486.435 4.44508e-06 
486.965 4.44653e-06 
487.495 4.44798e-06 
488.025 4.44944e-06 
488.556 4.45089e-06 
489.086 4.45235e-06 
489.616 4.45381e-06 
490.146 4.45527e-06 
490.677 4.45674e-06 
491.207 4.4582e-06 
491.737 4.45967e-06 
492.268 4.46114e-06 
492.798 4.46261e-06 
493.328 4.46409e-06 
493.858 4.46556e-06 
494.389 4.46704e-06 
494.919 4.46852e-06 
495.449 4.47e-06 
495.979 4.47149e-06 
496.51 4.47297e-06 
497.04 4.47446e-06 
497.57 4.47595e-06 
498.101 4.47744e-06 
498.631 4.47893e-06 
499.161 4.48043e-06 
499.691 4.48192e-06 
500.222 4.48342e-06 
500.752 4.48492e-06 
501.282 4.48642e-06 
501.812 4.48792e-06 
502.343 4.48943e-06 
502.873 4.49093e-06 
503.403 4.49244e-06 
503.934 4.49395e-06 
504.464 4.49546e-06 
504.994 4.49697e-06 
505.524 4.49849e-06 
506.055 4.5e-06 
506.585 4.50152e-06 
507.115 4.50304e-06 
507.646 4.50456e-06 
508.176 4.50608e-06 
508.706 4.50761e-06 
509.236 4.50913e-06 
509.767 4.51066e-06 
510.297 4.51219e-06 
510.827 4.51372e-06 
511.357 4.51525e-06 
511.888 4.51678e-06 
512.418 4.51832e-06 
512.948 4.51986e-06 
513.479 4.52139e-06 
514.009 4.52293e-06 
514.539 4.52447e-06 
515.069 4.52602e-06 
515.6 4.52756e-06 
516.13 4.52911e-06 
516.66 4.53065e-06 
517.19 4.5322e-06 
517.721 4.53375e-06 
518.251 4.53531e-06 
518.781 4.53686e-06 
519.312 4.53841e-06 
519.842 4.53997e-06 
520.372 4.54153e-06 
520.902 4.54309e-06 
521.433 4.54465e-06 
521.963 4.54621e-06 
522.493 4.54778e-06 
523.023 4.54934e-06 
523.554 4.55091e-06 
524.084 4.55248e-06 
524.614 4.55405e-06 
525.145 4.55562e-06 
525.675 4.55719e-06 
526.205 4.55877e-06 
526.735 4.56034e-06 
527.266 4.56192e-06 
527.796 4.5635e-06 
528.326 4.56508e-06 
528.856 4.56667e-06 
529.387 4.56825e-06 
529.917 4.56984e-06 
530.447 4.57142e-06 
530.978 4.57301e-06 
531.508 4.5746e-06 
532.038 4.57619e-06 
532.568 4.57779e-06 
533.099 4.57938e-06 
533.629 4.58098e-06 
534.159 4.58257e-06 
534.689 4.58417e-06 
535.22 4.58578e-06 
535.75 4.58738e-06 
536.28 4.58898e-06 
536.811 4.59059e-06 
537.341 4.59219e-06 
537.871 4.5938e-06 
538.401 4.59541e-06 
538.932 4.59702e-06 
539.462 4.59864e-06 
539.992 4.60025e-06 
540.522 4.60187e-06 
541.053 4.60348e-06 
541.583 4.6051e-06 
542.113 4.60672e-06 
542.644 4.60835e-06 
543.174 4.60997e-06 
543.704 4.61159e-06 
544.234 4.61322e-06 
544.765 4.61485e-06 
545.295 4.61648e-06 
545.825 4.61811e-06 
546.355 4.61974e-06 
546.886 4.62138e-06 
547.416 4.62301e-06 
547.946 4.62465e-06 
548.477 4.62629e-06 
549.007 4.62793e-06 
549.537 4.62957e-06 
550.067 4.63122e-06 
550.598 4.63286e-06 
551.128 4.63451e-06 
551.658 4.63616e-06 
552.188 4.63781e-06 
552.719 4.63946e-06 
553.249 4.64111e-06 
553.779 4.64277e-06 
554.31 4.64442e-06 
554.84 4.64608e-06 
555.37 4.64774e-06 
555.9 4.6494e-06 
556.431 4.65106e-06 
556.961 4.65273e-06 
557.491 4.65439e-06 
558.021 4.65606e-06 
558.552 4.65773e-06 
559.082 4.6594e-06 
559.612 4.66107e-06 
560.143 4.66275e-06 
560.673 4.66442e-06 
561.203 4.6661e-06 
561.733 4.66778e-06 
562.264 4.66946e-06 
562.794 4.67114e-06 
563.324 4.67282e-06 
563.854 4.67451e-06 
564.385 4.67619e-06 
564.915 4.67788e-06 
565.445 4.67957e-06 
565.976 4.68126e-06 
566.506 4.68296e-06 
567.036 4.68465e-06 
567.566 4.68635e-06 
568.097 4.68804e-06 
568.627 4.68974e-06 
569.157 4.69145e-06 
569.688 4.69315e-06 
570.218 4.69485e-06 
570.748 4.69656e-06 
571.278 4.69827e-06 
571.809 4.69997e-06 
572.339 4.70169e-06 
572.869 4.7034e-06 
573.399 4.70511e-06 
573.93 4.70683e-06 
574.46 4.70855e-06 
574.99 4.71027e-06 
575.521 4.71199e-06 
576.051 4.71371e-06 
576.581 4.71543e-06 
577.111 4.71716e-06 
577.642 4.71889e-06 
578.172 4.72061e-06 
578.702 4.72235e-06 
579.232 4.72408e-06 
579.763 4.72581e-06 
580.293 4.72755e-06 
580.823 4.72928e-06 
581.354 4.73102e-06 
581.884 4.73276e-06 
582.414 4.73451e-06 
582.944 4.73625e-06 
583.475 4.738e-06 
584.005 4.73974e-06 
584.535 4.74149e-06 
585.065 4.74325e-06 
585.596 4.745e-06 
586.126 4.74675e-06 
586.656 4.74851e-06 
587.187 4.75026e-06 
587.717 4.75202e-06 
588.247 4.75379e-06 
588.777 4.75555e-06 
589.308 4.75731e-06 
589.838 4.75908e-06 
590.368 4.76085e-06 
590.898 4.76262e-06 
591.429 4.76439e-06 
591.959 4.76616e-06 
592.489 4.76794e-06 
593.02 4.76971e-06 
593.55 4.77149e-06 
594.08 4.77327e-06 
594.61 4.77505e-06 
595.141 4.77684e-06 
595.671 4.77862e-06 
596.201 4.78041e-06 
596.731 4.7822e-06 
597.262 4.78399e-06 
597.792 4.78578e-06 
598.322 4.78758e-06 
598.853 4.78937e-06 
599.383 4.79117e-06 
599.913 4.79297e-06 
600.443 4.79477e-06 
600.974 4.79657e-06 
601.504 4.79838e-06 
602.034 4.80019e-06 
602.564 4.80199e-06 
603.095 4.80381e-06 
603.625 4.80562e-06 
604.155 4.80743e-06 
604.686 4.80925e-06 
605.216 4.81106e-06 
605.746 4.81288e-06 
606.276 4.8147e-06 
606.807 4.81653e-06 
607.337 4.81835e-06 
607.867 4.82018e-06 
608.397 4.82201e-06 
608.928 4.82384e-06 
609.458 4.82567e-06 
609.988 4.8275e-06 
610.519 4.82934e-06 
611.049 4.83118e-06 
611.579 4.83302e-06 
612.109 4.83486e-06 
612.64 4.8367e-06 
613.17 4.83854e-06 
613.7 4.84039e-06 
614.23 4.84224e-06 
614.761 4.84409e-06 
615.291 4.84594e-06 
615.821 4.8478e-06 
616.352 4.84965e-06 
616.882 4.85151e-06 
617.412 4.85337e-06 
617.942 4.85523e-06 
618.473 4.8571e-06 
619.003 4.85896e-06 
619.533 4.86083e-06 
620.063 4.8627e-06 
620.594 4.86457e-06 
621.124 4.86644e-06 
621.654 4.86832e-06 
622.185 4.8702e-06 
622.715 4.87208e-06 
623.245 4.87396e-06 
623.775 4.87584e-06 
624.306 4.87772e-06 
624.836 4.87961e-06 
625.366 4.8815e-06 
625.896 4.88339e-06 
626.427 4.88528e-06 
626.957 4.88717e-06 
627.487 4.88907e-06 
628.018 4.89097e-06 
628.548 4.89287e-06 
629.078 4.89477e-06 
629.608 4.89668e-06 
630.139 4.89858e-06 
630.669 4.90049e-06 
631.199 4.9024e-06 
631.729 4.90431e-06 
632.26 4.90622e-06 
632.79 4.90814e-06 
633.32 4.91006e-06 
633.851 4.91198e-06 
634.381 4.9139e-06 
634.911 4.91583e-06 
635.441 4.91775e-06 
635.972 4.91968e-06 
636.502 4.92161e-06 
637.032 4.92354e-06 
637.562 4.92547e-06 
638.093 4.92741e-06 
638.623 4.92935e-06 
639.153 4.93129e-06 
639.684 4.93323e-06 
640.214 4.93517e-06 
640.744 4.93712e-06 
641.274 4.93907e-06 
641.805 4.94102e-06 
642.335 4.94297e-06 
642.865 4.94492e-06 
643.396 4.94688e-06 
643.926 4.94884e-06 
644.456 4.9508e-06 
644.986 4.95276e-06 
645.517 4.95472e-06 
646.047 4.95669e-06 
646.577 4.95866e-06 
647.107 4.96063e-06 
647.638 4.9626e-06 
648.168 4.96458e-06 
648.698 4.96656e-06 
649.229 4.96854e-06 
649.759 4.97052e-06 
650.289 4.9725e-06 
650.819 4.97449e-06 
651.35 4.97647e-06 
651.88 4.97846e-06 
652.41 4.98045e-06 
652.94 4.98245e-06 
653.471 4.98444e-06 
654.001 4.98644e-06 
654.531 4.98844e-06 
655.062 4.99045e-06 
655.592 4.99245e-06 
656.122 4.99446e-06 
656.652 4.99647e-06 
657.183 4.99848e-06 
657.713 5.00049e-06 
658.243 5.00251e-06 
658.773 5.00452e-06 
659.304 5.00654e-06 
659.834 5.00857e-06 
660.364 5.01059e-06 
660.895 5.01262e-06 
661.425 5.01465e-06 
661.955 5.01668e-06 
662.485 5.01871e-06 
663.016 5.02074e-06 
663.546 5.02278e-06 
664.076 5.02482e-06 
664.606 5.02686e-06 
665.137 5.02891e-06 
665.667 5.03095e-06 
666.197 5.033e-06 
666.728 5.03505e-06 
667.258 5.0371e-06 
667.788 5.03916e-06 
668.318 5.04122e-06 
668.849 5.04328e-06 
669.379 5.04534e-06 
669.909 5.0474e-06 
670.439 5.04947e-06 
670.97 5.05154e-06 
671.5 5.05361e-06 
672.03 5.05569e-06 
672.561 5.05776e-06 
673.091 5.05984e-06 
673.621 5.06192e-06 
674.151 5.064e-06 
674.682 5.06609e-06 
675.212 5.06817e-06 
675.742 5.07026e-06 
676.272 5.07236e-06 
676.803 5.07445e-06 
677.333 5.07655e-06 
677.863 5.07865e-06 
678.394 5.08075e-06 
678.924 5.08285e-06 
679.454 5.08496e-06 
679.984 5.08706e-06 
680.515 5.08918e-06 
681.045 5.09129e-06 
681.575 5.0934e-06 
682.105 5.09552e-06 
682.636 5.09764e-06 
683.166 5.09977e-06 
683.696 5.10189e-06 
684.227 5.10402e-06 
684.757 5.10615e-06 
685.287 5.10828e-06 
685.817 5.11041e-06 
686.348 5.11255e-06 
686.878 5.11469e-06 
687.408 5.11683e-06 
687.938 5.11898e-06 
688.469 5.12112e-06 
688.999 5.12327e-06 
689.529 5.12542e-06 
690.06 5.12758e-06 
690.59 5.12974e-06 
691.12 5.1319e-06 
691.65 5.13406e-06 
692.181 5.13622e-06 
692.711 5.13839e-06 
693.241 5.14056e-06 
693.771 5.14273e-06 
694.302 5.1449e-06 
694.832 5.14708e-06 
695.362 5.14926e-06 
695.893 5.15144e-06 
696.423 5.15362e-06 
696.953 5.15581e-06 
697.483 5.158e-06 
698.014 5.16019e-06 
698.544 5.16238e-06 
699.074 5.16458e-06 
699.604 5.16678e-06 
700.135 5.16898e-06 
700.665 5.17119e-06 
701.195 5.17339e-06 
701.726 5.1756e-06 
702.256 5.17782e-06 
702.786 5.18003e-06 
703.316 5.18225e-06 
703.847 5.18447e-06 
704.377 5.18669e-06 
704.907 5.18892e-06 
705.438 5.19114e-06 
705.968 5.19337e-06 
706.498 5.19561e-06 
707.028 5.19784e-06 
707.559 5.20008e-06 
708.089 5.20232e-06 
708.619 5.20457e-06 
709.149 5.20681e-06 
709.68 5.20906e-06 
710.21 5.21131e-06 
710.74 5.21357e-06 
711.271 5.21582e-06 
711.801 5.21808e-06 
712.331 5.22035e-06 
712.861 5.22261e-06 
713.392 5.22488e-06 
713.922 5.22715e-06 
714.452 5.22942e-06 
714.982 5.2317e-06 
715.513 5.23398e-06 
716.043 5.23626e-06 
716.573 5.23854e-06 
717.104 5.24083e-06 
717.634 5.24312e-06 
718.164 5.24541e-06 
718.694 5.24771e-06 
719.225 5.25001e-06 
719.755 5.25231e-06 
720.285 5.25461e-06 
720.815 5.25692e-06 
721.346 5.25923e-06 
721.876 5.26154e-06 
722.406 5.26385e-06 
722.937 5.26617e-06 
723.467 5.26849e-06 
723.997 5.27081e-06 
724.527 5.27314e-06 
725.058 5.27547e-06 
725.588 5.2778e-06 
726.118 5.28014e-06 
726.648 5.28248e-06 
727.179 5.28482e-06 
727.709 5.28716e-06 
728.239 5.2895e-06 
728.77 5.29185e-06 
729.3 5.29421e-06 
729.83 5.29656e-06 
730.36 5.29892e-06 
730.891 5.30128e-06 
731.421 5.30364e-06 
731.951 5.30601e-06 
732.481 5.30838e-06 
733.012 5.31075e-06 
733.542 5.31313e-06 
734.072 5.31551e-06 
734.603 5.31789e-06 
735.133 5.32027e-06 
735.663 5.32266e-06 
736.193 5.32505e-06 
736.724 5.32745e-06 
737.254 5.32984e-06 
737.784 5.33224e-06 
738.314 5.33464e-06 
738.845 5.33705e-06 
739.375 5.33946e-06 
739.905 5.34187e-06 
740.436 5.34428e-06 
740.966 5.3467e-06 
741.496 5.34912e-06 
742.026 5.35155e-06 
742.557 5.35397e-06 
743.087 5.3564e-06 
743.617 5.35884e-06 
744.147 5.36127e-06 
744.678 5.36371e-06 
745.208 5.36616e-06 
745.738 5.3686e-06 
746.269 5.37105e-06 
746.799 5.3735e-06 
747.329 5.37596e-06 
747.859 5.37842e-06 
748.39 5.38088e-06 
748.92 5.38334e-06 
749.45 5.38581e-06 
749.98 5.38828e-06 
750.511 5.39075e-06 
751.041 5.39323e-06 
751.571 5.39571e-06 
752.102 5.3982e-06 
752.632 5.40068e-06 
753.162 5.40317e-06 
753.692 5.40567e-06 
754.223 5.40816e-06 
754.753 5.41066e-06 
755.283 5.41317e-06 
755.813 5.41567e-06 
756.344 5.41818e-06 
756.874 5.4207e-06 
757.404 5.42321e-06 
757.935 5.42573e-06 
758.465 5.42826e-06 
758.995 5.43078e-06 
759.525 5.43331e-06 
760.056 5.43585e-06 
760.586 5.43838e-06 
761.116 5.44092e-06 
761.646 5.44346e-06 
762.177 5.44601e-06 
762.707 5.44856e-06 
763.237 5.45112e-06 
763.768 5.45367e-06 
764.298 5.45623e-06 
764.828 5.4588e-06 
765.358 5.46136e-06 
765.889 5.46393e-06 
766.419 5.46651e-06 
766.949 5.46909e-06 
767.479 5.47167e-06 
768.01 5.47425e-06 
768.54 5.47684e-06 
769.07 5.47943e-06 
769.601 5.48203e-06 
770.131 5.48463e-06 
770.661 5.48723e-06 
771.191 5.48983e-06 
771.722 5.49244e-06 
772.252 5.49505e-06 
772.782 5.49767e-06 
773.312 5.50029e-06 
773.843 5.50291e-06 
774.373 5.50554e-06 
774.903 5.50817e-06 
775.434 5.51081e-06 
775.964 5.51344e-06 
776.494 5.51608e-06 
777.024 5.51873e-06 
777.555 5.52138e-06 
778.085 5.52403e-06 
778.615 5.52669e-06 
779.146 5.52935e-06 
779.676 5.53201e-06 
780.206 5.53468e-06 
780.736 5.53735e-06 
781.267 5.54002e-06 
781.797 5.5427e-06 
782.327 5.54538e-06 
782.857 5.54807e-06 
783.388 5.55076e-06 
783.918 5.55345e-06 
784.448 5.55615e-06 
784.979 5.55885e-06 
785.509 5.56155e-06 
786.039 5.56426e-06 
786.569 5.56697e-06 
787.1 5.56969e-06 
787.63 5.57241e-06 
788.16 5.57513e-06 
788.69 5.57786e-06 
789.221 5.58059e-06 
789.751 5.58333e-06 
790.281 5.58607e-06 
790.812 5.58881e-06 
791.342 5.59156e-06 
791.872 5.59431e-06 
792.402 5.59706e-06 
792.933 5.59982e-06 
793.463 5.60258e-06 
793.993 5.60535e-06 
794.523 5.60812e-06 
795.054 5.6109e-06 
795.584 5.61367e-06 
796.114 5.61646e-06 
796.645 5.61924e-06 
797.175 5.62204e-06 
797.705 5.62483e-06 
798.235 5.62763e-06 
798.766 5.63043e-06 
799.296 5.63324e-06 
799.826 5.63605e-06 
800.356 5.63886e-06 
800.887 5.64169e-06 
801.417 5.64451e-06 
801.947 5.64734e-06 
802.478 5.65017e-06 
803.008 5.653e-06 
803.538 5.65584e-06 
804.068 5.65869e-06 
804.599 5.66153e-06 
805.129 5.66439e-06 
805.659 5.66725e-06 
806.189 5.67011e-06 
806.72 5.67297e-06 
807.25 5.67584e-06 
807.78 5.67872e-06 
808.311 5.68159e-06 
808.841 5.68447e-06 
809.371 5.68736e-06 
809.901 5.69025e-06 
810.432 5.69315e-06 
810.962 5.69605e-06 
811.492 5.69895e-06 
812.022 5.70186e-06 
812.553 5.70477e-06 
813.083 5.70769e-06 
813.613 5.71061e-06 
814.144 5.71354e-06 
814.674 5.71647e-06 
815.204 5.7194e-06 
815.734 5.72234e-06 
816.265 5.72529e-06 
816.795 5.72823e-06 
817.325 5.73119e-06 
817.855 5.73414e-06 
818.386 5.7371e-06 
818.916 5.74007e-06 
819.446 5.74304e-06 
819.977 5.74602e-06 
820.507 5.749e-06 
821.037 5.75198e-06 
821.567 5.75497e-06 
822.098 5.75797e-06 
822.628 5.76096e-06 
823.158 5.76397e-06 
823.688 5.76698e-06 
824.219 5.76999e-06 
824.749 5.773e-06 
825.279 5.77603e-06 
825.81 5.77905e-06 
826.34 5.78208e-06 
826.87 5.78512e-06 
827.4 5.78816e-06 
827.931 5.79121e-06 
828.461 5.79425e-06 
828.991 5.79731e-06 
829.521 5.80037e-06 
830.052 5.80344e-06 
830.582 5.8065e-06 
831.112 5.80958e-06 
831.643 5.81266e-06 
832.173 5.81574e-06 
832.703 5.81883e-06 
833.233 5.82193e-06 
833.764 5.82502e-06 
834.294 5.82813e-06 
834.824 5.83124e-06 
835.354 5.83435e-06 
835.885 5.83747e-06 
836.415 5.84059e-06 
836.945 5.84372e-06 
837.476 5.84685e-06 
838.006 5.84999e-06 
838.536 5.85314e-06 
839.066 5.85629e-06 
839.597 5.85944e-06 
840.127 5.8626e-06 
840.657 5.86576e-06 
841.188 5.86893e-06 
841.718 5.87211e-06 
842.248 5.87529e-06 
842.778 5.87847e-06 
843.309 5.88166e-06 
843.839 5.88486e-06 
844.369 5.88806e-06 
844.899 5.89126e-06 
845.43 5.89447e-06 
845.96 5.89769e-06 
846.49 5.90091e-06 
847.021 5.90414e-06 
847.551 5.90737e-06 
848.081 5.91061e-06 
848.611 5.91385e-06 
849.142 5.9171e-06 
849.672 5.92036e-06 
850.202 5.92362e-06 
850.732 5.92688e-06 
851.263 5.93015e-06 
851.793 5.93343e-06 
852.323 5.93671e-06 
852.854 5.93999e-06 
853.384 5.94328e-06 
853.914 5.94658e-06 
854.444 5.94989e-06 
854.975 5.9532e-06 
855.505 5.95651e-06 
856.035 5.95983e-06 
856.565 5.96316e-06 
857.096 5.96649e-06 
857.626 5.96983e-06 
858.156 5.97317e-06 
858.687 5.97652e-06 
859.217 5.97987e-06 
859.747 5.98323e-06 
860.277 5.9866e-06 
860.808 5.98997e-06 
861.338 5.99334e-06 
861.868 5.99673e-06 
862.398 6.00012e-06 
862.929 6.00351e-06 
863.459 6.00691e-06 
863.989 6.01032e-06 
864.52 6.01373e-06 
865.05 6.01715e-06 
865.58 6.02058e-06 
866.11 6.02401e-06 
866.641 6.02744e-06 
867.171 6.03089e-06 
867.701 6.03434e-06 
868.231 6.03779e-06 
868.762 6.04125e-06 
869.292 6.04472e-06 
869.822 6.04819e-06 
870.353 6.05167e-06 
870.883 6.05515e-06 
871.413 6.05865e-06 
871.943 6.06215e-06 
872.474 6.06565e-06 
873.004 6.06916e-06 
873.534 6.07267e-06 
874.064 6.0762e-06 
874.595 6.07973e-06 
875.125 6.08326e-06 
875.655 6.08681e-06 
876.186 6.09035e-06 
876.716 6.09391e-06 
877.246 6.09747e-06 
877.776 6.10104e-06 
878.307 6.10461e-06 
878.837 6.10819e-06 
879.367 6.11178e-06 
879.897 6.11537e-06 
880.428 6.11897e-06 
880.958 6.12258e-06 
881.488 6.12619e-06 
882.019 6.12981e-06 
882.549 6.13344e-06 
883.079 6.13707e-06 
883.609 6.14071e-06 
884.14 6.14436e-06 
884.67 6.14801e-06 
885.2 6.15167e-06 
885.73 6.15534e-06 
886.261 6.15901e-06 
886.791 6.1627e-06 
887.321 6.16638e-06 
887.852 6.17008e-06 
888.382 6.17378e-06 
888.912 6.17749e-06 
889.442 6.1812e-06 
889.973 6.18493e-06 
890.503 6.18866e-06 
891.033 6.19239e-06 
891.563 6.19614e-06 
892.094 6.19989e-06 
892.624 6.20365e-06 
893.154 6.20741e-06 
893.685 6.21118e-06 
894.215 6.21496e-06 
894.745 6.21875e-06 
895.275 6.22254e-06 
895.806 6.22635e-06 
896.336 6.23016e-06 
896.866 6.23397e-06 
897.396 6.23779e-06 
897.927 6.24162e-06 
898.457 6.24546e-06 
898.987 6.24931e-06 
899.518 6.25316e-06 
900.048 6.25702e-06 
900.578 6.26089e-06 
901.108 6.26477e-06 
901.639 6.26865e-06 
902.169 6.27254e-06 
902.699 6.27644e-06 
903.229 6.28035e-06 
903.76 6.28426e-06 
904.29 6.28819e-06 
904.82 6.29211e-06 
905.351 6.29605e-06 
905.881 6.3e-06 
906.411 6.30395e-06 
906.941 6.30791e-06 
907.472 6.31188e-06 
908.002 6.31586e-06 
908.532 6.31985e-06 
909.062 6.32384e-06 
