#energy geo_1 
400 2.58964e-06 
400.53 2.59009e-06 
401.061 2.59055e-06 
401.591 2.591e-06 
402.121 2.59145e-06 
402.651 2.5919e-06 
403.182 2.59236e-06 
403.712 2.59281e-06 
404.242 2.59326e-06 
404.772 2.59371e-06 
405.303 2.59417e-06 
405.833 2.59462e-06 
406.363 2.59508e-06 
406.894 2.59553e-06 
407.424 2.59599e-06 
407.954 2.59644e-06 
408.484 2.5969e-06 
409.015 2.59735e-06 
409.545 2.59781e-06 
410.075 2.59827e-06 
410.605 2.59872e-06 
411.136 2.59918e-06 
411.666 2.59964e-06 
412.196 2.6001e-06 
412.727 2.60056e-06 
413.257 2.60102e-06 
413.787 2.60148e-06 
414.317 2.60194e-06 
414.848 2.6024e-06 
415.378 2.60287e-06 
415.908 2.60333e-06 
416.438 2.60379e-06 
416.969 2.60426e-06 
417.499 2.60473e-06 
418.029 2.60519e-06 
418.56 2.60566e-06 
419.09 2.60613e-06 
419.62 2.60659e-06 
420.15 2.60706e-06 
420.681 2.60753e-06 
421.211 2.60799e-06 
421.741 2.60846e-06 
422.271 2.60893e-06 
422.802 2.6094e-06 
423.332 2.60987e-06 
423.862 2.61034e-06 
424.393 2.61081e-06 
424.923 2.61128e-06 
425.453 2.61175e-06 
425.983 2.61223e-06 
426.514 2.6127e-06 
427.044 2.61317e-06 
427.574 2.61364e-06 
428.104 2.61412e-06 
428.635 2.61459e-06 
429.165 2.61506e-06 
429.695 2.61553e-06 
430.226 2.61601e-06 
430.756 2.61648e-06 
431.286 2.61695e-06 
431.816 2.61743e-06 
432.347 2.6179e-06 
432.877 2.61837e-06 
433.407 2.61885e-06 
433.938 2.61932e-06 
434.468 2.6198e-06 
434.998 2.62027e-06 
435.528 2.62075e-06 
436.059 2.62123e-06 
436.589 2.62171e-06 
437.119 2.62219e-06 
437.649 2.62267e-06 
438.18 2.62315e-06 
438.71 2.62363e-06 
439.24 2.62411e-06 
439.771 2.62459e-06 
440.301 2.62508e-06 
440.831 2.62556e-06 
441.361 2.62604e-06 
441.892 2.62653e-06 
442.422 2.62701e-06 
442.952 2.6275e-06 
443.482 2.62799e-06 
444.013 2.62847e-06 
444.543 2.62896e-06 
445.073 2.62945e-06 
445.604 2.62993e-06 
446.134 2.63042e-06 
446.664 2.63091e-06 
447.194 2.6314e-06 
447.725 2.63189e-06 
448.255 2.63238e-06 
448.785 2.63287e-06 
449.315 2.63336e-06 
449.846 2.63385e-06 
450.376 2.63434e-06 
450.906 2.63483e-06 
451.437 2.63533e-06 
451.967 2.63582e-06 
452.497 2.63632e-06 
453.027 2.63681e-06 
453.558 2.63731e-06 
454.088 2.63781e-06 
454.618 2.63831e-06 
455.148 2.63881e-06 
455.679 2.63931e-06 
456.209 2.63981e-06 
456.739 2.64031e-06 
457.27 2.64081e-06 
457.8 2.64132e-06 
458.33 2.64183e-06 
458.86 2.64234e-06 
459.391 2.64284e-06 
459.921 2.64335e-06 
460.451 2.64386e-06 
460.981 2.64437e-06 
461.512 2.64487e-06 
462.042 2.64538e-06 
462.572 2.64589e-06 
463.103 2.64639e-06 
463.633 2.6469e-06 
464.163 2.64741e-06 
464.693 2.64792e-06 
465.224 2.64842e-06 
465.754 2.64893e-06 
466.284 2.64944e-06 
466.814 2.64994e-06 
467.345 2.65045e-06 
467.875 2.65096e-06 
468.405 2.65146e-06 
468.936 2.65197e-06 
469.466 2.65248e-06 
469.996 2.65299e-06 
470.526 2.6535e-06 
471.057 2.65401e-06 
471.587 2.65452e-06 
472.117 2.65503e-06 
472.647 2.65554e-06 
473.178 2.65605e-06 
473.708 2.65656e-06 
474.238 2.65708e-06 
474.769 2.65759e-06 
475.299 2.6581e-06 
475.829 2.65862e-06 
476.359 2.65913e-06 
476.89 2.65964e-06 
477.42 2.66016e-06 
477.95 2.66068e-06 
478.48 2.66119e-06 
479.011 2.66171e-06 
479.541 2.66223e-06 
480.071 2.66275e-06 
480.602 2.66327e-06 
481.132 2.66379e-06 
481.662 2.66431e-06 
482.192 2.66484e-06 
482.723 2.66536e-06 
483.253 2.66588e-06 
483.783 2.66641e-06 
484.313 2.66693e-06 
484.844 2.66746e-06 
485.374 2.66798e-06 
485.904 2.66851e-06 
486.435 2.66904e-06 
486.965 2.66957e-06 
487.495 2.67009e-06 
488.025 2.67062e-06 
488.556 2.67115e-06 
489.086 2.67168e-06 
489.616 2.67221e-06 
490.146 2.67274e-06 
490.677 2.67327e-06 
491.207 2.6738e-06 
491.737 2.67433e-06 
492.268 2.67486e-06 
492.798 2.6754e-06 
493.328 2.67593e-06 
493.858 2.67646e-06 
494.389 2.677e-06 
494.919 2.67753e-06 
495.449 2.67806e-06 
495.979 2.6786e-06 
496.51 2.67913e-06 
497.04 2.67967e-06 
497.57 2.68021e-06 
498.101 2.68074e-06 
498.631 2.68128e-06 
499.161 2.68181e-06 
499.691 2.68235e-06 
500.222 2.68289e-06 
500.752 2.68343e-06 
501.282 2.68396e-06 
501.812 2.6845e-06 
502.343 2.68504e-06 
502.873 2.68558e-06 
503.403 2.68612e-06 
503.934 2.68666e-06 
504.464 2.68721e-06 
504.994 2.68775e-06 
505.524 2.68829e-06 
506.055 2.68883e-06 
506.585 2.68938e-06 
507.115 2.68992e-06 
507.646 2.69047e-06 
508.176 2.69102e-06 
508.706 2.69157e-06 
509.236 2.69211e-06 
509.767 2.69266e-06 
510.297 2.69321e-06 
510.827 2.69377e-06 
511.357 2.69432e-06 
511.888 2.69487e-06 
512.418 2.69542e-06 
512.948 2.69598e-06 
513.479 2.69654e-06 
514.009 2.69709e-06 
514.539 2.69765e-06 
515.069 2.69821e-06 
515.6 2.69876e-06 
516.13 2.69932e-06 
516.66 2.69988e-06 
517.19 2.70044e-06 
517.721 2.701e-06 
518.251 2.70157e-06 
518.781 2.70213e-06 
519.312 2.70269e-06 
519.842 2.70325e-06 
520.372 2.70382e-06 
520.902 2.70438e-06 
521.433 2.70495e-06 
521.963 2.70551e-06 
522.493 2.70608e-06 
523.023 2.70665e-06 
523.554 2.70721e-06 
524.084 2.70778e-06 
524.614 2.70835e-06 
525.145 2.70892e-06 
525.675 2.70949e-06 
526.205 2.71006e-06 
526.735 2.71063e-06 
527.266 2.7112e-06 
527.796 2.71177e-06 
528.326 2.71234e-06 
528.856 2.71291e-06 
529.387 2.71349e-06 
529.917 2.71406e-06 
530.447 2.71463e-06 
530.978 2.71521e-06 
531.508 2.71578e-06 
532.038 2.71636e-06 
532.568 2.71693e-06 
533.099 2.71751e-06 
533.629 2.71809e-06 
534.159 2.71867e-06 
534.689 2.71925e-06 
535.22 2.71982e-06 
535.75 2.7204e-06 
536.28 2.72098e-06 
536.811 2.72157e-06 
537.341 2.72215e-06 
537.871 2.72273e-06 
538.401 2.72331e-06 
538.932 2.7239e-06 
539.462 2.72448e-06 
539.992 2.72507e-06 
540.522 2.72565e-06 
541.053 2.72624e-06 
541.583 2.72683e-06 
542.113 2.72742e-06 
542.644 2.72801e-06 
543.174 2.7286e-06 
543.704 2.72919e-06 
544.234 2.72978e-06 
544.765 2.73037e-06 
545.295 2.73097e-06 
545.825 2.73156e-06 
546.355 2.73216e-06 
546.886 2.73276e-06 
547.416 2.73335e-06 
547.946 2.73395e-06 
548.477 2.73455e-06 
549.007 2.73515e-06 
549.537 2.73575e-06 
550.067 2.73635e-06 
550.598 2.73696e-06 
551.128 2.73756e-06 
551.658 2.73816e-06 
552.188 2.73877e-06 
552.719 2.73937e-06 
553.249 2.73998e-06 
553.779 2.74059e-06 
554.31 2.7412e-06 
554.84 2.7418e-06 
555.37 2.74241e-06 
555.9 2.74302e-06 
556.431 2.74363e-06 
556.961 2.74425e-06 
557.491 2.74486e-06 
558.021 2.74547e-06 
558.552 2.74608e-06 
559.082 2.7467e-06 
559.612 2.74731e-06 
560.143 2.74793e-06 
560.673 2.74854e-06 
561.203 2.74916e-06 
561.733 2.74977e-06 
562.264 2.75039e-06 
562.794 2.75101e-06 
563.324 2.75163e-06 
563.854 2.75224e-06 
564.385 2.75286e-06 
564.915 2.75348e-06 
565.445 2.7541e-06 
565.976 2.75472e-06 
566.506 2.75535e-06 
567.036 2.75597e-06 
567.566 2.75659e-06 
568.097 2.75722e-06 
568.627 2.75784e-06 
569.157 2.75846e-06 
569.688 2.75909e-06 
570.218 2.75972e-06 
570.748 2.76035e-06 
571.278 2.76097e-06 
571.809 2.7616e-06 
572.339 2.76223e-06 
572.869 2.76287e-06 
573.399 2.7635e-06 
573.93 2.76413e-06 
574.46 2.76477e-06 
574.99 2.7654e-06 
575.521 2.76604e-06 
576.051 2.76667e-06 
576.581 2.76731e-06 
577.111 2.76795e-06 
577.642 2.76859e-06 
578.172 2.76923e-06 
578.702 2.76987e-06 
579.232 2.77052e-06 
579.763 2.77116e-06 
580.293 2.7718e-06 
580.823 2.77245e-06 
581.354 2.7731e-06 
581.884 2.77374e-06 
582.414 2.77439e-06 
582.944 2.77504e-06 
583.475 2.77569e-06 
584.005 2.77634e-06 
584.535 2.777e-06 
585.065 2.77765e-06 
585.596 2.7783e-06 
586.126 2.77896e-06 
586.656 2.77961e-06 
587.187 2.78027e-06 
587.717 2.78093e-06 
588.247 2.78159e-06 
588.777 2.78225e-06 
589.308 2.78291e-06 
589.838 2.78356e-06 
590.368 2.78423e-06 
590.898 2.78489e-06 
591.429 2.78555e-06 
591.959 2.78621e-06 
592.489 2.78688e-06 
593.02 2.78754e-06 
593.55 2.78821e-06 
594.08 2.78887e-06 
594.61 2.78954e-06 
595.141 2.79021e-06 
595.671 2.79087e-06 
596.201 2.79154e-06 
596.731 2.79221e-06 
597.262 2.79288e-06 
597.792 2.79355e-06 
598.322 2.79422e-06 
598.853 2.7949e-06 
599.383 2.79557e-06 
599.913 2.79624e-06 
600.443 2.79692e-06 
600.974 2.79759e-06 
601.504 2.79827e-06 
602.034 2.79895e-06 
602.564 2.79963e-06 
603.095 2.8003e-06 
603.625 2.80099e-06 
604.155 2.80167e-06 
604.686 2.80235e-06 
605.216 2.80303e-06 
605.746 2.80371e-06 
606.276 2.8044e-06 
606.807 2.80508e-06 
607.337 2.80577e-06 
607.867 2.80646e-06 
608.397 2.80715e-06 
608.928 2.80784e-06 
609.458 2.80853e-06 
609.988 2.80922e-06 
610.519 2.80991e-06 
611.049 2.81061e-06 
611.579 2.8113e-06 
612.109 2.812e-06 
612.64 2.8127e-06 
613.17 2.8134e-06 
613.7 2.8141e-06 
614.23 2.8148e-06 
614.761 2.8155e-06 
615.291 2.8162e-06 
615.821 2.81691e-06 
616.352 2.81761e-06 
616.882 2.81832e-06 
617.412 2.81903e-06 
617.942 2.81973e-06 
618.473 2.82044e-06 
619.003 2.82115e-06 
619.533 2.82186e-06 
620.063 2.82258e-06 
620.594 2.82329e-06 
621.124 2.824e-06 
621.654 2.82472e-06 
622.185 2.82543e-06 
622.715 2.82615e-06 
623.245 2.82687e-06 
623.775 2.82759e-06 
624.306 2.8283e-06 
624.836 2.82902e-06 
625.366 2.82974e-06 
625.896 2.83047e-06 
626.427 2.83119e-06 
626.957 2.83191e-06 
627.487 2.83264e-06 
628.018 2.83336e-06 
628.548 2.83409e-06 
629.078 2.83481e-06 
629.608 2.83554e-06 
630.139 2.83627e-06 
630.669 2.837e-06 
631.199 2.83773e-06 
631.729 2.83846e-06 
632.26 2.83919e-06 
632.79 2.83992e-06 
633.32 2.84065e-06 
633.851 2.84139e-06 
634.381 2.84212e-06 
634.911 2.84286e-06 
635.441 2.8436e-06 
635.972 2.84434e-06 
636.502 2.84508e-06 
637.032 2.84582e-06 
637.562 2.84656e-06 
638.093 2.8473e-06 
638.623 2.84805e-06 
639.153 2.84879e-06 
639.684 2.84954e-06 
640.214 2.85028e-06 
640.744 2.85103e-06 
641.274 2.85178e-06 
641.805 2.85253e-06 
642.335 2.85329e-06 
642.865 2.85404e-06 
643.396 2.85479e-06 
643.926 2.85555e-06 
644.456 2.85631e-06 
644.986 2.85707e-06 
645.517 2.85782e-06 
646.047 2.85858e-06 
646.577 2.85935e-06 
647.107 2.86011e-06 
647.638 2.86087e-06 
648.168 2.86164e-06 
648.698 2.86241e-06 
649.229 2.86318e-06 
649.759 2.86394e-06 
650.289 2.86471e-06 
650.819 2.86548e-06 
651.35 2.86626e-06 
651.88 2.86703e-06 
652.41 2.8678e-06 
652.94 2.86858e-06 
653.471 2.86936e-06 
654.001 2.87014e-06 
654.531 2.87091e-06 
655.062 2.87169e-06 
655.592 2.87247e-06 
656.122 2.87326e-06 
656.652 2.87404e-06 
657.183 2.87482e-06 
657.713 2.87561e-06 
658.243 2.87639e-06 
658.773 2.87718e-06 
659.304 2.87797e-06 
659.834 2.87876e-06 
660.364 2.87955e-06 
660.895 2.88034e-06 
661.425 2.88113e-06 
661.955 2.88192e-06 
662.485 2.88272e-06 
663.016 2.88351e-06 
663.546 2.88431e-06 
664.076 2.8851e-06 
664.606 2.8859e-06 
665.137 2.8867e-06 
665.667 2.8875e-06 
666.197 2.8883e-06 
666.728 2.8891e-06 
667.258 2.88991e-06 
667.788 2.89071e-06 
668.318 2.89152e-06 
668.849 2.89232e-06 
669.379 2.89313e-06 
669.909 2.89394e-06 
670.439 2.89475e-06 
670.97 2.89556e-06 
671.5 2.89638e-06 
672.03 2.89719e-06 
672.561 2.89801e-06 
673.091 2.89882e-06 
673.621 2.89964e-06 
674.151 2.90046e-06 
674.682 2.90128e-06 
675.212 2.90211e-06 
675.742 2.90293e-06 
676.272 2.90376e-06 
676.803 2.90458e-06 
677.333 2.90541e-06 
677.863 2.90624e-06 
678.394 2.90707e-06 
678.924 2.9079e-06 
679.454 2.90874e-06 
679.984 2.90957e-06 
680.515 2.91041e-06 
681.045 2.91124e-06 
681.575 2.91208e-06 
682.105 2.91293e-06 
682.636 2.91377e-06 
683.166 2.91461e-06 
683.696 2.91545e-06 
684.227 2.9163e-06 
684.757 2.91715e-06 
685.287 2.91799e-06 
685.817 2.91884e-06 
686.348 2.91969e-06 
686.878 2.92055e-06 
687.408 2.9214e-06 
687.938 2.92225e-06 
688.469 2.92311e-06 
688.999 2.92396e-06 
689.529 2.92482e-06 
690.06 2.92568e-06 
690.59 2.92654e-06 
691.12 2.9274e-06 
691.65 2.92827e-06 
692.181 2.92913e-06 
692.711 2.92999e-06 
693.241 2.93086e-06 
693.771 2.93173e-06 
694.302 2.9326e-06 
694.832 2.93346e-06 
695.362 2.93434e-06 
695.893 2.93521e-06 
696.423 2.93608e-06 
696.953 2.93696e-06 
697.483 2.93783e-06 
698.014 2.93871e-06 
698.544 2.93959e-06 
699.074 2.94047e-06 
699.604 2.94135e-06 
700.135 2.94223e-06 
700.665 2.94311e-06 
701.195 2.944e-06 
701.726 2.94489e-06 
702.256 2.94577e-06 
702.786 2.94666e-06 
703.316 2.94755e-06 
703.847 2.94845e-06 
704.377 2.94934e-06 
704.907 2.95024e-06 
705.438 2.95113e-06 
705.968 2.95203e-06 
706.498 2.95293e-06 
707.028 2.95383e-06 
707.559 2.95474e-06 
708.089 2.95564e-06 
708.619 2.95655e-06 
709.149 2.95746e-06 
709.68 2.95837e-06 
710.21 2.95928e-06 
710.74 2.96019e-06 
711.271 2.96111e-06 
711.801 2.96202e-06 
712.331 2.96294e-06 
712.861 2.96386e-06 
713.392 2.96478e-06 
713.922 2.9657e-06 
714.452 2.96663e-06 
714.982 2.96755e-06 
715.513 2.96848e-06 
716.043 2.9694e-06 
716.573 2.97033e-06 
717.104 2.97126e-06 
717.634 2.9722e-06 
718.164 2.97313e-06 
718.694 2.97406e-06 
719.225 2.975e-06 
719.755 2.97594e-06 
720.285 2.97688e-06 
720.815 2.97782e-06 
721.346 2.97876e-06 
721.876 2.97971e-06 
722.406 2.98065e-06 
722.937 2.9816e-06 
723.467 2.98255e-06 
723.997 2.9835e-06 
724.527 2.98445e-06 
725.058 2.9854e-06 
725.588 2.98635e-06 
726.118 2.98731e-06 
726.648 2.98827e-06 
727.179 2.98922e-06 
727.709 2.99018e-06 
728.239 2.99114e-06 
728.77 2.99211e-06 
729.3 2.99307e-06 
729.83 2.99404e-06 
730.36 2.995e-06 
730.891 2.99597e-06 
731.421 2.99694e-06 
731.951 2.99791e-06 
732.481 2.99889e-06 
733.012 2.99986e-06 
733.542 3.00084e-06 
734.072 3.00181e-06 
734.603 3.00279e-06 
735.133 3.00377e-06 
735.663 3.00476e-06 
736.193 3.00574e-06 
736.724 3.00673e-06 
737.254 3.00772e-06 
737.784 3.00871e-06 
738.314 3.0097e-06 
738.845 3.01069e-06 
739.375 3.01168e-06 
739.905 3.01268e-06 
740.436 3.01368e-06 
740.966 3.01468e-06 
741.496 3.01568e-06 
742.026 3.01669e-06 
742.557 3.01769e-06 
743.087 3.0187e-06 
743.617 3.01971e-06 
744.147 3.02072e-06 
744.678 3.02173e-06 
745.208 3.02274e-06 
745.738 3.02376e-06 
746.269 3.02478e-06 
746.799 3.0258e-06 
747.329 3.02682e-06 
747.859 3.02784e-06 
748.39 3.02887e-06 
748.92 3.0299e-06 
749.45 3.03092e-06 
749.98 3.03195e-06 
750.511 3.03299e-06 
751.041 3.03402e-06 
751.571 3.03505e-06 
752.102 3.03609e-06 
752.632 3.03713e-06 
753.162 3.03817e-06 
753.692 3.03921e-06 
754.223 3.04025e-06 
754.753 3.0413e-06 
755.283 3.04234e-06 
755.813 3.04339e-06 
756.344 3.04444e-06 
756.874 3.04549e-06 
757.404 3.04655e-06 
757.935 3.0476e-06 
758.465 3.04866e-06 
758.995 3.04972e-06 
759.525 3.05078e-06 
760.056 3.05184e-06 
760.586 3.0529e-06 
761.116 3.05396e-06 
761.646 3.05503e-06 
762.177 3.0561e-06 
762.707 3.05717e-06 
763.237 3.05824e-06 
763.768 3.05932e-06 
764.298 3.0604e-06 
764.828 3.06147e-06 
765.358 3.06255e-06 
765.889 3.06364e-06 
766.419 3.06472e-06 
766.949 3.06581e-06 
767.479 3.06689e-06 
768.01 3.06798e-06 
768.54 3.06908e-06 
769.07 3.07017e-06 
769.601 3.07127e-06 
770.131 3.07236e-06 
770.661 3.07346e-06 
771.191 3.07457e-06 
771.722 3.07567e-06 
772.252 3.07678e-06 
772.782 3.07789e-06 
773.312 3.079e-06 
773.843 3.08011e-06 
774.373 3.08122e-06 
774.903 3.08234e-06 
775.434 3.08346e-06 
775.964 3.08458e-06 
776.494 3.0857e-06 
777.024 3.08683e-06 
777.555 3.08796e-06 
778.085 3.08909e-06 
778.615 3.09022e-06 
779.146 3.09135e-06 
779.676 3.09249e-06 
780.206 3.09363e-06 
780.736 3.09477e-06 
781.267 3.09591e-06 
781.797 3.09706e-06 
782.327 3.0982e-06 
782.857 3.09935e-06 
783.388 3.1005e-06 
783.918 3.10166e-06 
784.448 3.10281e-06 
784.979 3.10397e-06 
785.509 3.10512e-06 
786.039 3.10628e-06 
786.569 3.10745e-06 
787.1 3.10861e-06 
787.63 3.10977e-06 
788.16 3.11094e-06 
788.69 3.11211e-06 
789.221 3.11328e-06 
789.751 3.11446e-06 
790.281 3.11563e-06 
790.812 3.11681e-06 
791.342 3.11799e-06 
791.872 3.11917e-06 
792.402 3.12035e-06 
792.933 3.12153e-06 
793.463 3.12272e-06 
793.993 3.12391e-06 
794.523 3.1251e-06 
795.054 3.1263e-06 
795.584 3.12749e-06 
796.114 3.12869e-06 
796.645 3.1299e-06 
797.175 3.1311e-06 
797.705 3.13231e-06 
798.235 3.13352e-06 
798.766 3.13473e-06 
799.296 3.13595e-06 
799.826 3.13716e-06 
800.356 3.13838e-06 
800.887 3.13961e-06 
801.417 3.14083e-06 
801.947 3.14206e-06 
802.478 3.14329e-06 
803.008 3.14453e-06 
803.538 3.14577e-06 
804.068 3.14701e-06 
804.599 3.14825e-06 
805.129 3.14949e-06 
805.659 3.15074e-06 
806.189 3.15199e-06 
806.72 3.15324e-06 
807.25 3.15449e-06 
807.78 3.15575e-06 
808.311 3.15701e-06 
808.841 3.15827e-06 
809.371 3.15953e-06 
809.901 3.1608e-06 
810.432 3.16207e-06 
810.962 3.16334e-06 
811.492 3.16462e-06 
812.022 3.16589e-06 
812.553 3.16717e-06 
813.083 3.16846e-06 
813.613 3.16974e-06 
814.144 3.17103e-06 
814.674 3.17232e-06 
815.204 3.17361e-06 
815.734 3.1749e-06 
816.265 3.1762e-06 
816.795 3.1775e-06 
817.325 3.1788e-06 
817.855 3.18011e-06 
818.386 3.18142e-06 
818.916 3.18273e-06 
819.446 3.18404e-06 
819.977 3.18535e-06 
820.507 3.18667e-06 
821.037 3.18799e-06 
821.567 3.18931e-06 
822.098 3.19064e-06 
822.628 3.19197e-06 
823.158 3.1933e-06 
823.688 3.19463e-06 
824.219 3.19597e-06 
824.749 3.19731e-06 
825.279 3.19865e-06 
825.81 3.19999e-06 
826.34 3.20134e-06 
826.87 3.20269e-06 
827.4 3.20405e-06 
827.931 3.20541e-06 
828.461 3.20677e-06 
828.991 3.20813e-06 
829.521 3.2095e-06 
830.052 3.21087e-06 
830.582 3.21224e-06 
831.112 3.21361e-06 
831.643 3.21499e-06 
832.173 3.21638e-06 
832.703 3.21776e-06 
833.233 3.21915e-06 
833.764 3.22055e-06 
834.294 3.22194e-06 
834.824 3.22334e-06 
835.354 3.22474e-06 
835.885 3.22615e-06 
836.415 3.22756e-06 
836.945 3.22897e-06 
837.476 3.23039e-06 
838.006 3.23181e-06 
838.536 3.23324e-06 
839.066 3.23466e-06 
839.597 3.23609e-06 
840.127 3.23753e-06 
840.657 3.23897e-06 
841.188 3.24041e-06 
841.718 3.24185e-06 
842.248 3.2433e-06 
842.778 3.24475e-06 
843.309 3.2462e-06 
843.839 3.24766e-06 
844.369 3.24912e-06 
844.899 3.25059e-06 
845.43 3.25206e-06 
845.96 3.25353e-06 
846.49 3.25501e-06 
847.021 3.25649e-06 
847.551 3.25797e-06 
848.081 3.25946e-06 
848.611 3.26096e-06 
849.142 3.26245e-06 
849.672 3.26396e-06 
850.202 3.26546e-06 
850.732 3.26697e-06 
851.263 3.26848e-06 
851.793 3.27e-06 
852.323 3.27153e-06 
852.854 3.27305e-06 
853.384 3.27458e-06 
853.914 3.27612e-06 
854.444 3.27766e-06 
854.975 3.2792e-06 
855.505 3.28075e-06 
856.035 3.2823e-06 
856.565 3.28386e-06 
857.096 3.28542e-06 
857.626 3.28698e-06 
858.156 3.28856e-06 
858.687 3.29013e-06 
859.217 3.29172e-06 
859.747 3.2933e-06 
860.277 3.2949e-06 
860.808 3.29649e-06 
861.338 3.2981e-06 
861.868 3.2997e-06 
862.398 3.30132e-06 
862.929 3.30294e-06 
863.459 3.30456e-06 
863.989 3.30619e-06 
864.52 3.30782e-06 
865.05 3.30946e-06 
865.58 3.31111e-06 
866.11 3.31276e-06 
866.641 3.31442e-06 
867.171 3.31608e-06 
867.701 3.31774e-06 
868.231 3.31942e-06 
868.762 3.3211e-06 
869.292 3.32278e-06 
869.822 3.32447e-06 
870.353 3.32617e-06 
870.883 3.32787e-06 
871.413 3.32959e-06 
871.943 3.3313e-06 
872.474 3.33303e-06 
873.004 3.33476e-06 
873.534 3.3365e-06 
874.064 3.33825e-06 
874.595 3.34e-06 
875.125 3.34176e-06 
875.655 3.34353e-06 
876.186 3.34531e-06 
876.716 3.34709e-06 
877.246 3.34889e-06 
877.776 3.35069e-06 
878.307 3.3525e-06 
878.837 3.35431e-06 
879.367 3.35613e-06 
879.897 3.35797e-06 
880.428 3.3598e-06 
880.958 3.36165e-06 
881.488 3.3635e-06 
882.019 3.36536e-06 
882.549 3.36723e-06 
883.079 3.36911e-06 
883.609 3.37099e-06 
884.14 3.37288e-06 
884.67 3.37478e-06 
885.2 3.37669e-06 
885.73 3.37861e-06 
886.261 3.38054e-06 
886.791 3.38248e-06 
887.321 3.38443e-06 
887.852 3.38639e-06 
888.382 3.38837e-06 
888.912 3.39036e-06 
889.442 3.39236e-06 
889.973 3.39438e-06 
890.503 3.39641e-06 
891.033 3.39846e-06 
891.563 3.40052e-06 
892.094 3.4026e-06 
892.624 3.40469e-06 
893.154 3.40681e-06 
893.685 3.40894e-06 
894.215 3.41109e-06 
894.745 3.41326e-06 
895.275 3.41545e-06 
895.806 3.41766e-06 
896.336 3.41989e-06 
896.866 3.42214e-06 
897.396 3.42441e-06 
897.927 3.4267e-06 
898.457 3.42901e-06 
898.987 3.43134e-06 
899.518 3.4337e-06 
900.048 3.43608e-06 
900.578 3.43848e-06 
901.108 3.4409e-06 
901.639 3.44334e-06 
902.169 3.4458e-06 
902.699 3.44829e-06 
903.229 3.4508e-06 
903.76 3.45333e-06 
904.29 3.45589e-06 
904.82 3.45848e-06 
905.351 3.46109e-06 
905.881 3.46373e-06 
906.411 3.46641e-06 
906.941 3.46912e-06 
907.472 3.47186e-06 
908.002 3.47465e-06 
908.532 3.47748e-06 
909.062 3.48036e-06 
909.593 3.48328e-06 
910.123 3.48625e-06 
