#energy geo_1 
400 5.05766e-06 
400.53 5.05924e-06 
401.061 5.06082e-06 
401.591 5.06239e-06 
402.121 5.06396e-06 
402.651 5.06553e-06 
403.182 5.0671e-06 
403.712 5.06866e-06 
404.242 5.07021e-06 
404.772 5.07177e-06 
405.303 5.07332e-06 
405.833 5.07486e-06 
406.363 5.07641e-06 
406.894 5.07796e-06 
407.424 5.0795e-06 
407.954 5.08105e-06 
408.484 5.0826e-06 
409.015 5.08415e-06 
409.545 5.08571e-06 
410.075 5.08727e-06 
410.605 5.08885e-06 
411.136 5.09044e-06 
411.666 5.09204e-06 
412.196 5.09367e-06 
412.727 5.09531e-06 
413.257 5.097e-06 
413.787 5.09872e-06 
414.317 5.10048e-06 
414.848 5.1023e-06 
415.378 5.10419e-06 
415.908 5.10616e-06 
416.438 5.10822e-06 
416.969 5.1104e-06 
417.499 5.11273e-06 
418.029 5.11523e-06 
418.56 5.11794e-06 
419.09 5.12091e-06 
419.62 5.1242e-06 
420.15 5.12788e-06 
420.681 5.13205e-06 
421.211 5.13682e-06 
421.741 5.14235e-06 
422.271 5.14884e-06 
422.802 5.15654e-06 
423.332 5.16577e-06 
423.862 5.17691e-06 
424.393 5.19041e-06 
424.923 5.20667e-06 
425.453 5.22595e-06 
425.983 5.24792e-06 
426.514 5.27118e-06 
427.044 5.29266e-06 
427.574 5.30786e-06 
428.104 5.31266e-06 
428.635 5.30586e-06 
429.165 5.2901e-06 
429.695 5.26995e-06 
430.226 5.24944e-06 
430.756 5.23095e-06 
431.286 5.21538e-06 
431.816 5.20277e-06 
432.347 5.19278e-06 
432.877 5.18497e-06 
433.407 5.17893e-06 
433.938 5.1743e-06 
434.468 5.17078e-06 
434.998 5.16815e-06 
435.528 5.16624e-06 
436.059 5.16489e-06 
436.589 5.16401e-06 
437.119 5.1635e-06 
437.649 5.16331e-06 
438.18 5.16337e-06 
438.71 5.16365e-06 
439.24 5.1641e-06 
439.771 5.16471e-06 
440.301 5.16545e-06 
440.831 5.1663e-06 
441.361 5.16724e-06 
441.892 5.16827e-06 
442.422 5.16936e-06 
442.952 5.17053e-06 
443.482 5.17174e-06 
444.013 5.17301e-06 
444.543 5.17431e-06 
445.073 5.17566e-06 
445.604 5.17705e-06 
446.134 5.17846e-06 
446.664 5.1799e-06 
447.194 5.18136e-06 
447.725 5.18285e-06 
448.255 5.18436e-06 
448.785 5.18589e-06 
449.315 5.18743e-06 
449.846 5.18899e-06 
450.376 5.19057e-06 
450.906 5.19216e-06 
451.437 5.19376e-06 
451.967 5.19537e-06 
452.497 5.197e-06 
453.027 5.19863e-06 
453.558 5.20028e-06 
454.088 5.20193e-06 
454.618 5.20359e-06 
455.148 5.20526e-06 
455.679 5.20694e-06 
456.209 5.20862e-06 
456.739 5.21031e-06 
457.27 5.212e-06 
457.8 5.2137e-06 
458.33 5.21541e-06 
458.86 5.21713e-06 
459.391 5.21885e-06 
459.921 5.22057e-06 
460.451 5.2223e-06 
460.981 5.22403e-06 
461.512 5.22577e-06 
462.042 5.22751e-06 
462.572 5.22926e-06 
463.103 5.23101e-06 
463.633 5.23276e-06 
464.163 5.23452e-06 
464.693 5.23628e-06 
465.224 5.23805e-06 
465.754 5.23982e-06 
466.284 5.24159e-06 
466.814 5.24337e-06 
467.345 5.24515e-06 
467.875 5.24693e-06 
468.405 5.24871e-06 
468.936 5.2505e-06 
469.466 5.2523e-06 
469.996 5.25409e-06 
470.526 5.25589e-06 
471.057 5.25769e-06 
471.587 5.25949e-06 
472.117 5.2613e-06 
472.647 5.26311e-06 
473.178 5.26492e-06 
473.708 5.26674e-06 
474.238 5.26855e-06 
474.769 5.27037e-06 
475.299 5.27219e-06 
475.829 5.27402e-06 
476.359 5.27585e-06 
476.89 5.27768e-06 
477.42 5.27951e-06 
477.95 5.28134e-06 
478.48 5.28318e-06 
479.011 5.28502e-06 
479.541 5.28687e-06 
480.071 5.28871e-06 
480.602 5.29056e-06 
481.132 5.29241e-06 
481.662 5.29426e-06 
482.192 5.29611e-06 
482.723 5.29797e-06 
483.253 5.29983e-06 
483.783 5.30169e-06 
484.313 5.30356e-06 
484.844 5.30542e-06 
485.374 5.30729e-06 
485.904 5.30916e-06 
486.435 5.31104e-06 
486.965 5.31291e-06 
487.495 5.31479e-06 
488.025 5.31667e-06 
488.556 5.31855e-06 
489.086 5.32043e-06 
489.616 5.32232e-06 
490.146 5.32421e-06 
490.677 5.3261e-06 
491.207 5.328e-06 
491.737 5.32989e-06 
492.268 5.33179e-06 
492.798 5.33369e-06 
493.328 5.33559e-06 
493.858 5.3375e-06 
494.389 5.33941e-06 
494.919 5.34131e-06 
495.449 5.34322e-06 
495.979 5.34514e-06 
496.51 5.34705e-06 
497.04 5.34897e-06 
497.57 5.35089e-06 
498.101 5.35281e-06 
498.631 5.35474e-06 
499.161 5.35666e-06 
499.691 5.35859e-06 
500.222 5.36052e-06 
500.752 5.36246e-06 
501.282 5.36439e-06 
501.812 5.36633e-06 
502.343 5.36827e-06 
502.873 5.37021e-06 
503.403 5.37216e-06 
503.934 5.37411e-06 
504.464 5.37605e-06 
504.994 5.378e-06 
505.524 5.37996e-06 
506.055 5.38191e-06 
506.585 5.38387e-06 
507.115 5.38583e-06 
507.646 5.38779e-06 
508.176 5.38976e-06 
508.706 5.39172e-06 
509.236 5.39369e-06 
509.767 5.39566e-06 
510.297 5.39764e-06 
510.827 5.39961e-06 
511.357 5.40159e-06 
511.888 5.40357e-06 
512.418 5.40555e-06 
512.948 5.40753e-06 
513.479 5.40952e-06 
514.009 5.41151e-06 
514.539 5.4135e-06 
515.069 5.41549e-06 
515.6 5.41749e-06 
516.13 5.41948e-06 
516.66 5.42148e-06 
517.19 5.42349e-06 
517.721 5.42549e-06 
518.251 5.4275e-06 
518.781 5.42951e-06 
519.312 5.43152e-06 
519.842 5.43353e-06 
520.372 5.43554e-06 
520.902 5.43756e-06 
521.433 5.43958e-06 
521.963 5.4416e-06 
522.493 5.44363e-06 
523.023 5.44565e-06 
523.554 5.44768e-06 
524.084 5.44971e-06 
524.614 5.45175e-06 
525.145 5.45378e-06 
525.675 5.45582e-06 
526.205 5.45786e-06 
526.735 5.4599e-06 
527.266 5.46195e-06 
527.796 5.46399e-06 
528.326 5.46605e-06 
528.856 5.4681e-06 
529.387 5.47015e-06 
529.917 5.47221e-06 
530.447 5.47426e-06 
530.978 5.47632e-06 
531.508 5.47839e-06 
532.038 5.48045e-06 
532.568 5.48252e-06 
533.099 5.48459e-06 
533.629 5.48666e-06 
534.159 5.48874e-06 
534.689 5.49082e-06 
535.22 5.49289e-06 
535.75 5.49498e-06 
536.28 5.49706e-06 
536.811 5.49915e-06 
537.341 5.50123e-06 
537.871 5.50333e-06 
538.401 5.50542e-06 
538.932 5.50751e-06 
539.462 5.50961e-06 
539.992 5.51171e-06 
540.522 5.51382e-06 
541.053 5.51592e-06 
541.583 5.51803e-06 
542.113 5.52014e-06 
542.644 5.52225e-06 
543.174 5.52437e-06 
543.704 5.52648e-06 
544.234 5.5286e-06 
544.765 5.53072e-06 
545.295 5.53285e-06 
545.825 5.53497e-06 
546.355 5.5371e-06 
546.886 5.53923e-06 
547.416 5.54137e-06 
547.946 5.5435e-06 
548.477 5.54564e-06 
549.007 5.54778e-06 
549.537 5.54993e-06 
550.067 5.55207e-06 
550.598 5.55422e-06 
551.128 5.55637e-06 
551.658 5.55853e-06 
552.188 5.56068e-06 
552.719 5.56284e-06 
553.249 5.565e-06 
553.779 5.56716e-06 
554.31 5.56933e-06 
554.84 5.5715e-06 
555.37 5.57367e-06 
555.9 5.57584e-06 
556.431 5.57802e-06 
556.961 5.58019e-06 
557.491 5.58237e-06 
558.021 5.58455e-06 
558.552 5.58674e-06 
559.082 5.58893e-06 
559.612 5.59112e-06 
560.143 5.59331e-06 
560.673 5.59551e-06 
561.203 5.5977e-06 
561.733 5.59991e-06 
562.264 5.60211e-06 
562.794 5.60431e-06 
563.324 5.60652e-06 
563.854 5.60873e-06 
564.385 5.61095e-06 
564.915 5.61316e-06 
565.445 5.61538e-06 
565.976 5.6176e-06 
566.506 5.61982e-06 
567.036 5.62205e-06 
567.566 5.62428e-06 
568.097 5.6265e-06 
568.627 5.62874e-06 
569.157 5.63098e-06 
569.688 5.63321e-06 
570.218 5.63546e-06 
570.748 5.6377e-06 
571.278 5.63994e-06 
571.809 5.64219e-06 
572.339 5.64445e-06 
572.869 5.6467e-06 
573.399 5.64896e-06 
573.93 5.65121e-06 
574.46 5.65348e-06 
574.99 5.65574e-06 
575.521 5.65801e-06 
576.051 5.66028e-06 
576.581 5.66255e-06 
577.111 5.66482e-06 
577.642 5.6671e-06 
578.172 5.66938e-06 
578.702 5.67167e-06 
579.232 5.67395e-06 
579.763 5.67624e-06 
580.293 5.67853e-06 
580.823 5.68083e-06 
581.354 5.68312e-06 
581.884 5.68542e-06 
582.414 5.68772e-06 
582.944 5.69003e-06 
583.475 5.69233e-06 
584.005 5.69464e-06 
584.535 5.69696e-06 
585.065 5.69927e-06 
585.596 5.70159e-06 
586.126 5.70391e-06 
586.656 5.70624e-06 
587.187 5.70856e-06 
587.717 5.71089e-06 
588.247 5.71322e-06 
588.777 5.71556e-06 
589.308 5.71789e-06 
589.838 5.72023e-06 
590.368 5.72258e-06 
590.898 5.72492e-06 
591.429 5.72727e-06 
591.959 5.72962e-06 
592.489 5.73197e-06 
593.02 5.73433e-06 
593.55 5.73669e-06 
594.08 5.73905e-06 
594.61 5.74142e-06 
595.141 5.74378e-06 
595.671 5.74615e-06 
596.201 5.74853e-06 
596.731 5.75091e-06 
597.262 5.75328e-06 
597.792 5.75567e-06 
598.322 5.75805e-06 
598.853 5.76044e-06 
599.383 5.76283e-06 
599.913 5.76522e-06 
600.443 5.76762e-06 
600.974 5.77002e-06 
601.504 5.77242e-06 
602.034 5.77482e-06 
602.564 5.77723e-06 
603.095 5.77964e-06 
603.625 5.78205e-06 
604.155 5.78447e-06 
604.686 5.78689e-06 
605.216 5.78931e-06 
605.746 5.79174e-06 
606.276 5.79416e-06 
606.807 5.79659e-06 
607.337 5.79903e-06 
607.867 5.80147e-06 
608.397 5.8039e-06 
608.928 5.80635e-06 
609.458 5.80879e-06 
609.988 5.81124e-06 
610.519 5.81369e-06 
611.049 5.81615e-06 
611.579 5.8186e-06 
612.109 5.82106e-06 
612.64 5.82353e-06 
613.17 5.82599e-06 
613.7 5.82846e-06 
614.23 5.83094e-06 
614.761 5.83341e-06 
615.291 5.83589e-06 
615.821 5.83837e-06 
616.352 5.84085e-06 
616.882 5.84334e-06 
617.412 5.84583e-06 
617.942 5.84832e-06 
618.473 5.85082e-06 
619.003 5.85332e-06 
619.533 5.85582e-06 
620.063 5.85833e-06 
620.594 5.86084e-06 
621.124 5.86335e-06 
621.654 5.86586e-06 
622.185 5.86838e-06 
622.715 5.8709e-06 
623.245 5.87343e-06 
623.775 5.87596e-06 
624.306 5.87849e-06 
624.836 5.88102e-06 
625.366 5.88355e-06 
625.896 5.88609e-06 
626.427 5.88864e-06 
626.957 5.89118e-06 
627.487 5.89373e-06 
628.018 5.89628e-06 
628.548 5.89884e-06 
629.078 5.9014e-06 
629.608 5.90396e-06 
630.139 5.90653e-06 
630.669 5.9091e-06 
631.199 5.91167e-06 
631.729 5.91424e-06 
632.26 5.91682e-06 
632.79 5.9194e-06 
633.32 5.92198e-06 
633.851 5.92457e-06 
634.381 5.92716e-06 
634.911 5.92976e-06 
635.441 5.93235e-06 
635.972 5.93495e-06 
636.502 5.93756e-06 
637.032 5.94016e-06 
637.562 5.94277e-06 
638.093 5.94539e-06 
638.623 5.948e-06 
639.153 5.95062e-06 
639.684 5.95325e-06 
640.214 5.95587e-06 
640.744 5.9585e-06 
641.274 5.96114e-06 
641.805 5.96377e-06 
642.335 5.96641e-06 
642.865 5.96906e-06 
643.396 5.9717e-06 
643.926 5.97435e-06 
644.456 5.97701e-06 
644.986 5.97966e-06 
645.517 5.98232e-06 
646.047 5.98498e-06 
646.577 5.98765e-06 
647.107 5.99032e-06 
647.638 5.99299e-06 
648.168 5.99567e-06 
648.698 5.99835e-06 
649.229 6.00103e-06 
649.759 6.00372e-06 
650.289 6.00641e-06 
650.819 6.00911e-06 
651.35 6.0118e-06 
651.88 6.0145e-06 
652.41 6.01721e-06 
652.94 6.01992e-06 
653.471 6.02263e-06 
654.001 6.02534e-06 
654.531 6.02806e-06 
655.062 6.03078e-06 
655.592 6.03351e-06 
656.122 6.03623e-06 
656.652 6.03897e-06 
657.183 6.0417e-06 
657.713 6.04444e-06 
658.243 6.04718e-06 
658.773 6.04993e-06 
659.304 6.05268e-06 
659.834 6.05543e-06 
660.364 6.05819e-06 
660.895 6.06095e-06 
661.425 6.06371e-06 
661.955 6.06648e-06 
662.485 6.06925e-06 
663.016 6.07203e-06 
663.546 6.07481e-06 
664.076 6.07759e-06 
664.606 6.08037e-06 
665.137 6.08316e-06 
665.667 6.08596e-06 
666.197 6.08875e-06 
666.728 6.09155e-06 
667.258 6.09436e-06 
667.788 6.09716e-06 
668.318 6.09998e-06 
668.849 6.10279e-06 
669.379 6.10561e-06 
669.909 6.10843e-06 
670.439 6.11126e-06 
670.97 6.11409e-06 
671.5 6.11692e-06 
672.03 6.11976e-06 
672.561 6.1226e-06 
673.091 6.12544e-06 
673.621 6.12829e-06 
674.151 6.13114e-06 
674.682 6.134e-06 
675.212 6.13686e-06 
675.742 6.13972e-06 
676.272 6.14259e-06 
676.803 6.14546e-06 
677.333 6.14834e-06 
677.863 6.15122e-06 
678.394 6.1541e-06 
678.924 6.15698e-06 
679.454 6.15987e-06 
679.984 6.16277e-06 
680.515 6.16567e-06 
681.045 6.16857e-06 
681.575 6.17147e-06 
682.105 6.17438e-06 
682.636 6.17729e-06 
683.166 6.18021e-06 
683.696 6.18314e-06 
684.227 6.18606e-06 
684.757 6.18899e-06 
685.287 6.19192e-06 
685.817 6.19486e-06 
686.348 6.1978e-06 
686.878 6.20074e-06 
687.408 6.20369e-06 
687.938 6.20665e-06 
688.469 6.2096e-06 
688.999 6.21256e-06 
689.529 6.21553e-06 
690.06 6.2185e-06 
690.59 6.22147e-06 
691.12 6.22445e-06 
691.65 6.22743e-06 
692.181 6.23041e-06 
692.711 6.2334e-06 
693.241 6.23639e-06 
693.771 6.23939e-06 
694.302 6.24239e-06 
694.832 6.2454e-06 
695.362 6.24841e-06 
695.893 6.25142e-06 
696.423 6.25444e-06 
696.953 6.25746e-06 
697.483 6.26048e-06 
698.014 6.26352e-06 
698.544 6.26655e-06 
699.074 6.26959e-06 
699.604 6.27263e-06 
700.135 6.27568e-06 
700.665 6.27873e-06 
701.195 6.28178e-06 
701.726 6.28484e-06 
702.256 6.28791e-06 
702.786 6.29097e-06 
703.316 6.29405e-06 
703.847 6.29712e-06 
704.377 6.3002e-06 
704.907 6.30329e-06 
705.438 6.30638e-06 
705.968 6.30947e-06 
706.498 6.31257e-06 
707.028 6.31567e-06 
707.559 6.31878e-06 
708.089 6.32189e-06 
708.619 6.325e-06 
709.149 6.32812e-06 
709.68 6.33125e-06 
710.21 6.33437e-06 
710.74 6.33751e-06 
711.271 6.34064e-06 
711.801 6.34378e-06 
712.331 6.34693e-06 
712.861 6.35008e-06 
713.392 6.35323e-06 
713.922 6.35639e-06 
714.452 6.35956e-06 
714.982 6.36272e-06 
715.513 6.3659e-06 
716.043 6.36907e-06 
716.573 6.37225e-06 
717.104 6.37544e-06 
717.634 6.37863e-06 
718.164 6.38182e-06 
718.694 6.38502e-06 
719.225 6.38823e-06 
719.755 6.39144e-06 
720.285 6.39465e-06 
720.815 6.39787e-06 
721.346 6.40109e-06 
721.876 6.40432e-06 
722.406 6.40755e-06 
722.937 6.41078e-06 
723.467 6.41403e-06 
723.997 6.41727e-06 
724.527 6.42052e-06 
725.058 6.42377e-06 
725.588 6.42703e-06 
726.118 6.4303e-06 
726.648 6.43357e-06 
727.179 6.43684e-06 
727.709 6.44012e-06 
728.239 6.4434e-06 
728.77 6.44669e-06 
729.3 6.44998e-06 
729.83 6.45328e-06 
730.36 6.45658e-06 
730.891 6.45989e-06 
731.421 6.4632e-06 
731.951 6.46651e-06 
732.481 6.46983e-06 
733.012 6.47316e-06 
733.542 6.47649e-06 
734.072 6.47983e-06 
734.603 6.48317e-06 
735.133 6.48651e-06 
735.663 6.48986e-06 
736.193 6.49322e-06 
736.724 6.49658e-06 
737.254 6.49994e-06 
737.784 6.50331e-06 
738.314 6.50669e-06 
738.845 6.51007e-06 
739.375 6.51345e-06 
739.905 6.51684e-06 
740.436 6.52024e-06 
740.966 6.52363e-06 
741.496 6.52704e-06 
742.026 6.53045e-06 
742.557 6.53387e-06 
743.087 6.53729e-06 
743.617 6.54071e-06 
744.147 6.54414e-06 
744.678 6.54758e-06 
745.208 6.55102e-06 
745.738 6.55446e-06 
746.269 6.55791e-06 
746.799 6.56137e-06 
747.329 6.56483e-06 
747.859 6.5683e-06 
748.39 6.57177e-06 
748.92 6.57525e-06 
749.45 6.57873e-06 
749.98 6.58221e-06 
750.511 6.58571e-06 
751.041 6.5892e-06 
751.571 6.59271e-06 
752.102 6.59621e-06 
752.632 6.59973e-06 
753.162 6.60325e-06 
753.692 6.60677e-06 
754.223 6.6103e-06 
754.753 6.61384e-06 
755.283 6.61738e-06 
755.813 6.62092e-06 
756.344 6.62447e-06 
756.874 6.62803e-06 
757.404 6.63159e-06 
757.935 6.63516e-06 
758.465 6.63873e-06 
758.995 6.64231e-06 
759.525 6.64589e-06 
760.056 6.64948e-06 
760.586 6.65307e-06 
761.116 6.65667e-06 
761.646 6.66028e-06 
762.177 6.66389e-06 
762.707 6.66751e-06 
763.237 6.67113e-06 
763.768 6.67476e-06 
764.298 6.67839e-06 
764.828 6.68203e-06 
765.358 6.68567e-06 
765.889 6.68933e-06 
766.419 6.69298e-06 
766.949 6.69664e-06 
767.479 6.70031e-06 
768.01 6.70398e-06 
768.54 6.70766e-06 
769.07 6.71135e-06 
769.601 6.71504e-06 
770.131 6.71873e-06 
770.661 6.72243e-06 
771.191 6.72614e-06 
771.722 6.72986e-06 
772.252 6.73358e-06 
772.782 6.7373e-06 
773.312 6.74103e-06 
773.843 6.74477e-06 
774.373 6.74851e-06 
774.903 6.75226e-06 
775.434 6.75601e-06 
775.964 6.75978e-06 
776.494 6.76354e-06 
777.024 6.76731e-06 
777.555 6.77109e-06 
778.085 6.77488e-06 
778.615 6.77867e-06 
779.146 6.78247e-06 
779.676 6.78627e-06 
780.206 6.79008e-06 
780.736 6.79389e-06 
781.267 6.79771e-06 
781.797 6.80154e-06 
782.327 6.80537e-06 
782.857 6.80921e-06 
783.388 6.81306e-06 
783.918 6.81691e-06 
784.448 6.82077e-06 
784.979 6.82463e-06 
785.509 6.8285e-06 
786.039 6.83238e-06 
786.569 6.83626e-06 
787.1 6.84015e-06 
787.63 6.84405e-06 
788.16 6.84795e-06 
788.69 6.85186e-06 
789.221 6.85577e-06 
789.751 6.8597e-06 
790.281 6.86362e-06 
790.812 6.86756e-06 
791.342 6.8715e-06 
791.872 6.87544e-06 
792.402 6.87939e-06 
792.933 6.88335e-06 
793.463 6.88732e-06 
793.993 6.8913e-06 
794.523 6.89527e-06 
795.054 6.89926e-06 
795.584 6.90325e-06 
796.114 6.90725e-06 
796.645 6.91126e-06 
797.175 6.91527e-06 
797.705 6.91929e-06 
798.235 6.92332e-06 
798.766 6.92735e-06 
799.296 6.93139e-06 
799.826 6.93543e-06 
800.356 6.93949e-06 
800.887 6.94354e-06 
801.417 6.94761e-06 
801.947 6.95168e-06 
802.478 6.95576e-06 
803.008 6.95985e-06 
803.538 6.96394e-06 
804.068 6.96804e-06 
804.599 6.97215e-06 
805.129 6.97627e-06 
805.659 6.98039e-06 
806.189 6.98452e-06 
806.72 6.98865e-06 
807.25 6.9928e-06 
807.78 6.99694e-06 
808.311 7.0011e-06 
808.841 7.00527e-06 
809.371 7.00944e-06 
809.901 7.01361e-06 
810.432 7.0178e-06 
810.962 7.02199e-06 
811.492 7.02619e-06 
812.022 7.0304e-06 
812.553 7.03461e-06 
813.083 7.03883e-06 
813.613 7.04306e-06 
814.144 7.0473e-06 
814.674 7.05154e-06 
815.204 7.05579e-06 
815.734 7.06005e-06 
816.265 7.06432e-06 
816.795 7.06859e-06 
817.325 7.07287e-06 
817.855 7.07715e-06 
818.386 7.08145e-06 
818.916 7.08575e-06 
819.446 7.09006e-06 
819.977 7.09438e-06 
820.507 7.0987e-06 
821.037 7.10304e-06 
821.567 7.10738e-06 
822.098 7.11173e-06 
822.628 7.11608e-06 
823.158 7.12044e-06 
823.688 7.12482e-06 
824.219 7.1292e-06 
824.749 7.13358e-06 
825.279 7.13798e-06 
825.81 7.14238e-06 
826.34 7.14679e-06 
826.87 7.15121e-06 
827.4 7.15563e-06 
827.931 7.16007e-06 
828.461 7.16451e-06 
828.991 7.16896e-06 
829.521 7.17342e-06 
830.052 7.17788e-06 
830.582 7.18236e-06 
831.112 7.18684e-06 
831.643 7.19133e-06 
832.173 7.19583e-06 
832.703 7.20033e-06 
833.233 7.20485e-06 
833.764 7.20937e-06 
834.294 7.21391e-06 
834.824 7.21844e-06 
835.354 7.22299e-06 
835.885 7.22755e-06 
836.415 7.23211e-06 
836.945 7.23669e-06 
837.476 7.24127e-06 
838.006 7.24586e-06 
838.536 7.25045e-06 
839.066 7.25506e-06 
839.597 7.25968e-06 
840.127 7.2643e-06 
840.657 7.26893e-06 
841.188 7.27357e-06 
841.718 7.27822e-06 
842.248 7.28288e-06 
842.778 7.28755e-06 
843.309 7.29222e-06 
843.839 7.29691e-06 
844.369 7.3016e-06 
844.899 7.3063e-06 
845.43 7.31101e-06 
845.96 7.31573e-06 
846.49 7.32046e-06 
847.021 7.3252e-06 
847.551 7.32995e-06 
848.081 7.3347e-06 
848.611 7.33947e-06 
849.142 7.34424e-06 
849.672 7.34902e-06 
850.202 7.35382e-06 
850.732 7.35862e-06 
851.263 7.36343e-06 
851.793 7.36825e-06 
852.323 7.37308e-06 
852.854 7.37791e-06 
853.384 7.38276e-06 
853.914 7.38762e-06 
854.444 7.39249e-06 
854.975 7.39736e-06 
855.505 7.40225e-06 
856.035 7.40714e-06 
856.565 7.41205e-06 
857.096 7.41696e-06 
857.626 7.42188e-06 
858.156 7.42682e-06 
858.687 7.43176e-06 
859.217 7.43671e-06 
859.747 7.44167e-06 
860.277 7.44665e-06 
860.808 7.45163e-06 
861.338 7.45662e-06 
861.868 7.46162e-06 
862.398 7.46663e-06 
862.929 7.47166e-06 
863.459 7.47669e-06 
863.989 7.48173e-06 
864.52 7.48678e-06 
865.05 7.49184e-06 
865.58 7.49692e-06 
866.11 7.502e-06 
866.641 7.50709e-06 
867.171 7.5122e-06 
867.701 7.51731e-06 
868.231 7.52243e-06 
868.762 7.52757e-06 
869.292 7.53271e-06 
869.822 7.53787e-06 
870.353 7.54303e-06 
870.883 7.54821e-06 
871.413 7.55339e-06 
871.943 7.55859e-06 
872.474 7.5638e-06 
873.004 7.56902e-06 
873.534 7.57425e-06 
874.064 7.57949e-06 
874.595 7.58474e-06 
875.125 7.59001e-06 
875.655 7.59528e-06 
876.186 7.60056e-06 
876.716 7.60586e-06 
877.246 7.61116e-06 
877.776 7.61648e-06 
878.307 7.62181e-06 
878.837 7.62715e-06 
879.367 7.6325e-06 
879.897 7.63787e-06 
880.428 7.64324e-06 
880.958 7.64863e-06 
881.488 7.65402e-06 
882.019 7.65943e-06 
882.549 7.66485e-06 
883.079 7.67029e-06 
883.609 7.67573e-06 
884.14 7.68119e-06 
884.67 7.68665e-06 
885.2 7.69213e-06 
885.73 7.69762e-06 
886.261 7.70313e-06 
886.791 7.70864e-06 
887.321 7.71417e-06 
887.852 7.71971e-06 
888.382 7.72526e-06 
888.912 7.73082e-06 
889.442 7.7364e-06 
889.973 7.74199e-06 
890.503 7.74759e-06 
891.033 7.7532e-06 
891.563 7.75883e-06 
892.094 7.76447e-06 
892.624 7.77012e-06 
893.154 7.77578e-06 
893.685 7.78146e-06 
894.215 7.78715e-06 
894.745 7.79285e-06 
895.275 7.79856e-06 
895.806 7.80429e-06 
896.336 7.81003e-06 
896.866 7.81579e-06 
897.396 7.82155e-06 
897.927 7.82733e-06 
898.457 7.83313e-06 
898.987 7.83893e-06 
899.518 7.84475e-06 
900.048 7.85059e-06 
900.578 7.85644e-06 
901.108 7.8623e-06 
901.639 7.86817e-06 
902.169 7.87406e-06 
902.699 7.87997e-06 
903.229 7.88588e-06 
903.76 7.89181e-06 
904.29 7.89776e-06 
904.82 7.90371e-06 
905.351 7.90969e-06 
905.881 7.91568e-06 
906.411 7.92168e-06 
906.941 7.92769e-06 
907.472 7.93373e-06 
908.002 7.93977e-06 
908.532 7.94583e-06 
909.062 7.9519e-06 
