#energy geo_1 
400 4.326e-06 
400.53 4.33326e-06 
401.061 4.34198e-06 
401.591 4.35249e-06 
402.121 4.36521e-06 
402.651 4.38064e-06 
403.182 4.39943e-06 
403.712 4.4224e-06 
404.242 4.45058e-06 
404.772 4.48533e-06 
405.303 4.52834e-06 
405.833 4.58182e-06 
406.363 4.6485e-06 
406.894 4.73171e-06 
407.424 4.8352e-06 
407.954 4.96255e-06 
408.484 5.11563e-06 
409.015 5.29146e-06 
409.545 5.47735e-06 
410.075 5.64644e-06 
410.605 5.76009e-06 
411.136 5.78389e-06 
411.666 5.70962e-06 
412.196 5.56146e-06 
412.727 5.37891e-06 
413.257 5.19576e-06 
413.787 5.03146e-06 
414.317 4.89329e-06 
414.848 4.78155e-06 
415.378 4.6936e-06 
415.908 4.62611e-06 
416.438 4.5761e-06 
416.969 4.54126e-06 
417.499 4.52001e-06 
418.029 4.51151e-06 
418.56 4.51539e-06 
419.09 4.53151e-06 
419.62 4.55928e-06 
420.15 4.59657e-06 
420.681 4.63814e-06 
421.211 4.67458e-06 
421.741 4.69395e-06 
422.271 4.68737e-06 
422.802 4.65494e-06 
423.332 4.6056e-06 
423.862 4.55115e-06 
424.393 4.50075e-06 
424.923 4.4594e-06 
425.453 4.42905e-06 
425.983 4.41001e-06 
426.514 4.40203e-06 
427.044 4.40466e-06 
427.574 4.4171e-06 
428.104 4.43757e-06 
428.635 4.46224e-06 
429.165 4.48441e-06 
429.695 4.49541e-06 
430.226 4.48837e-06 
430.756 4.46251e-06 
431.286 4.42352e-06 
431.816 4.37945e-06 
432.347 4.33672e-06 
432.877 4.29874e-06 
433.407 4.26661e-06 
433.938 4.24008e-06 
434.468 4.21845e-06 
434.998 4.20086e-06 
435.528 4.18656e-06 
436.059 4.17489e-06 
436.589 4.16535e-06 
437.119 4.15751e-06 
437.649 4.15106e-06 
438.18 4.14574e-06 
438.71 4.14135e-06 
439.24 4.13774e-06 
439.771 4.13478e-06 
440.301 4.13237e-06 
440.831 4.13042e-06 
441.361 4.12887e-06 
441.892 4.12767e-06 
442.422 4.12677e-06 
442.952 4.12613e-06 
443.482 4.12571e-06 
444.013 4.1255e-06 
444.543 4.12546e-06 
445.073 4.12559e-06 
445.604 4.12586e-06 
446.134 4.12626e-06 
446.664 4.12677e-06 
447.194 4.12739e-06 
447.725 4.12811e-06 
448.255 4.12891e-06 
448.785 4.1298e-06 
449.315 4.13075e-06 
449.846 4.13177e-06 
450.376 4.13286e-06 
450.906 4.134e-06 
451.437 4.13519e-06 
451.967 4.13644e-06 
452.497 4.13773e-06 
453.027 4.13906e-06 
453.558 4.14043e-06 
454.088 4.14184e-06 
454.618 4.14329e-06 
455.148 4.14476e-06 
455.679 4.14627e-06 
456.209 4.14781e-06 
456.739 4.14937e-06 
457.27 4.15096e-06 
457.8 4.15257e-06 
458.33 4.1542e-06 
458.86 4.15586e-06 
459.391 4.15753e-06 
459.921 4.15922e-06 
460.451 4.16093e-06 
460.981 4.16266e-06 
461.512 4.1644e-06 
462.042 4.16615e-06 
462.572 4.16792e-06 
463.103 4.1697e-06 
463.633 4.17149e-06 
464.163 4.17329e-06 
464.693 4.1751e-06 
465.224 4.17692e-06 
465.754 4.17874e-06 
466.284 4.18057e-06 
466.814 4.18241e-06 
467.345 4.18425e-06 
467.875 4.1861e-06 
468.405 4.18795e-06 
468.936 4.18981e-06 
469.466 4.19167e-06 
469.996 4.19353e-06 
470.526 4.19539e-06 
471.057 4.19725e-06 
471.587 4.19911e-06 
472.117 4.20097e-06 
472.647 4.20284e-06 
473.178 4.2047e-06 
473.708 4.20656e-06 
474.238 4.20843e-06 
474.769 4.21029e-06 
475.299 4.21216e-06 
475.829 4.21402e-06 
476.359 4.21589e-06 
476.89 4.21777e-06 
477.42 4.21965e-06 
477.95 4.22153e-06 
478.48 4.22343e-06 
479.011 4.22534e-06 
479.541 4.22726e-06 
480.071 4.22921e-06 
480.602 4.23117e-06 
481.132 4.23317e-06 
481.662 4.23521e-06 
482.192 4.23729e-06 
482.723 4.23943e-06 
483.253 4.24163e-06 
483.783 4.24391e-06 
484.313 4.24629e-06 
484.844 4.24878e-06 
485.374 4.2514e-06 
485.904 4.25419e-06 
486.435 4.25718e-06 
486.965 4.2604e-06 
487.495 4.26391e-06 
488.025 4.26776e-06 
488.556 4.27204e-06 
489.086 4.27682e-06 
489.616 4.28224e-06 
490.146 4.28843e-06 
490.677 4.29558e-06 
491.207 4.30392e-06 
491.737 4.31377e-06 
492.268 4.32551e-06 
492.798 4.33964e-06 
493.328 4.35678e-06 
493.858 4.37768e-06 
494.389 4.40322e-06 
494.919 4.43421e-06 
495.449 4.4711e-06 
495.979 4.51327e-06 
496.51 4.55791e-06 
497.04 4.59901e-06 
497.57 4.62782e-06 
498.101 4.63631e-06 
498.631 4.62219e-06 
499.161 4.59051e-06 
499.691 4.55013e-06 
500.222 4.50891e-06 
500.752 4.47155e-06 
501.282 4.43988e-06 
501.812 4.41401e-06 
502.343 4.39331e-06 
502.873 4.37691e-06 
503.403 4.364e-06 
503.934 4.35388e-06 
504.464 4.34596e-06 
504.994 4.33979e-06 
505.524 4.33503e-06 
506.055 4.3314e-06 
506.585 4.32869e-06 
507.115 4.32671e-06 
507.646 4.32535e-06 
508.176 4.3245e-06 
508.706 4.32406e-06 
509.236 4.32399e-06 
509.767 4.3242e-06 
510.297 4.32468e-06 
510.827 4.32537e-06 
511.357 4.32625e-06 
511.888 4.32729e-06 
512.418 4.32847e-06 
512.948 4.32977e-06 
513.479 4.33118e-06 
514.009 4.33269e-06 
514.539 4.33428e-06 
515.069 4.33595e-06 
515.6 4.33768e-06 
516.13 4.33948e-06 
516.66 4.34134e-06 
517.19 4.34325e-06 
517.721 4.34521e-06 
518.251 4.34721e-06 
518.781 4.34927e-06 
519.312 4.35137e-06 
519.842 4.35352e-06 
520.372 4.35572e-06 
520.902 4.35797e-06 
521.433 4.36027e-06 
521.963 4.36263e-06 
522.493 4.36506e-06 
523.023 4.36756e-06 
523.554 4.37015e-06 
524.084 4.37283e-06 
524.614 4.37563e-06 
525.145 4.37856e-06 
525.675 4.38165e-06 
526.205 4.38492e-06 
526.735 4.38842e-06 
527.266 4.3922e-06 
527.796 4.39631e-06 
528.326 4.40084e-06 
528.856 4.40588e-06 
529.387 4.41156e-06 
529.917 4.41804e-06 
530.447 4.42554e-06 
530.978 4.43431e-06 
531.508 4.4447e-06 
532.038 4.4571e-06 
532.568 4.47193e-06 
533.099 4.48958e-06 
533.629 4.51012e-06 
534.159 4.53293e-06 
534.689 4.55612e-06 
535.22 4.57615e-06 
535.75 4.58853e-06 
536.28 4.59005e-06 
536.811 4.58084e-06 
537.341 4.56433e-06 
537.871 4.54494e-06 
538.401 4.52608e-06 
538.932 4.50955e-06 
539.462 4.49591e-06 
539.992 4.48508e-06 
540.522 4.47668e-06 
541.053 4.47028e-06 
541.583 4.46549e-06 
542.113 4.46201e-06 
542.644 4.45956e-06 
543.174 4.45795e-06 
543.704 4.45703e-06 
544.234 4.45669e-06 
544.765 4.45683e-06 
545.295 4.45739e-06 
545.825 4.45834e-06 
546.355 4.45964e-06 
546.886 4.46128e-06 
547.416 4.46327e-06 
547.946 4.4656e-06 
548.477 4.46831e-06 
549.007 4.47142e-06 
549.537 4.47499e-06 
550.067 4.47908e-06 
550.598 4.48377e-06 
551.128 4.48918e-06 
551.658 4.49543e-06 
552.188 4.5027e-06 
552.719 4.5112e-06 
553.249 4.52121e-06 
553.779 4.53309e-06 
554.31 4.54728e-06 
554.84 4.56437e-06 
555.37 4.58511e-06 
555.9 4.61044e-06 
556.431 4.64155e-06 
556.961 4.67988e-06 
557.491 4.72701e-06 
558.021 4.78436e-06 
558.552 4.85247e-06 
559.082 4.92956e-06 
559.612 5.0094e-06 
560.143 5.07983e-06 
560.673 5.12452e-06 
561.203 5.13039e-06 
561.733 5.09599e-06 
562.264 5.03247e-06 
562.794 4.9561e-06 
563.324 4.8802e-06 
563.854 4.81224e-06 
564.385 4.75485e-06 
564.915 4.7079e-06 
565.445 4.67013e-06 
565.976 4.63994e-06 
566.506 4.61588e-06 
567.036 4.59669e-06 
567.566 4.58137e-06 
568.097 4.56914e-06 
568.627 4.55937e-06 
569.157 4.55159e-06 
569.688 4.54541e-06 
570.218 4.54055e-06 
570.748 4.53676e-06 
571.278 4.53387e-06 
571.809 4.53173e-06 
572.339 4.5302e-06 
572.869 4.52921e-06 
573.399 4.52867e-06 
573.93 4.52851e-06 
574.46 4.52868e-06 
574.99 4.52914e-06 
575.521 4.52984e-06 
576.051 4.53077e-06 
576.581 4.53188e-06 
577.111 4.53315e-06 
577.642 4.53458e-06 
578.172 4.53615e-06 
578.702 4.53783e-06 
579.232 4.53962e-06 
579.763 4.54152e-06 
580.293 4.54351e-06 
580.823 4.54559e-06 
581.354 4.54775e-06 
581.884 4.55e-06 
582.414 4.55233e-06 
582.944 4.55475e-06 
583.475 4.55725e-06 
584.005 4.55985e-06 
584.535 4.56255e-06 
585.065 4.56537e-06 
585.596 4.5683e-06 
586.126 4.57138e-06 
586.656 4.57462e-06 
587.187 4.57805e-06 
587.717 4.58169e-06 
588.247 4.58559e-06 
588.777 4.5898e-06 
589.308 4.59438e-06 
589.838 4.59941e-06 
590.368 4.60498e-06 
590.898 4.61121e-06 
591.429 4.61827e-06 
591.959 4.62635e-06 
592.489 4.6357e-06 
593.02 4.64666e-06 
593.55 4.65964e-06 
594.08 4.67517e-06 
594.61 4.69392e-06 
595.141 4.71666e-06 
595.671 4.7442e-06 
596.201 4.77718e-06 
596.731 4.81557e-06 
597.262 4.85778e-06 
597.792 4.89957e-06 
598.322 4.93367e-06 
598.853 4.95172e-06 
599.383 4.94867e-06 
599.913 4.92617e-06 
600.443 4.89139e-06 
600.974 4.85256e-06 
601.504 4.81556e-06 
602.034 4.78332e-06 
602.564 4.75662e-06 
603.095 4.73514e-06 
603.625 4.71814e-06 
604.155 4.70481e-06 
604.686 4.69444e-06 
605.216 4.68643e-06 
605.746 4.68032e-06 
606.276 4.67575e-06 
606.807 4.67243e-06 
607.337 4.67016e-06 
607.867 4.66879e-06 
608.397 4.6682e-06 
608.928 4.66831e-06 
609.458 4.66907e-06 
609.988 4.67046e-06 
610.519 4.67248e-06 
611.049 4.67514e-06 
611.579 4.67849e-06 
612.109 4.68259e-06 
612.64 4.68753e-06 
613.17 4.69344e-06 
613.7 4.70046e-06 
614.23 4.7088e-06 
614.761 4.71871e-06 
615.291 4.73051e-06 
615.821 4.7446e-06 
616.352 4.76151e-06 
616.882 4.78191e-06 
617.412 4.80664e-06 
617.942 4.8368e-06 
618.473 4.87381e-06 
619.003 4.91945e-06 
619.533 4.97593e-06 
620.063 5.04592e-06 
620.594 5.13223e-06 
621.124 5.23724e-06 
621.654 5.3613e-06 
622.185 5.49987e-06 
622.715 5.63978e-06 
623.245 5.75716e-06 
623.775 5.82278e-06 
624.306 5.8165e-06 
624.836 5.74054e-06 
625.366 5.61775e-06 
625.896 5.47695e-06 
626.427 5.34013e-06 
626.957 5.21883e-06 
627.487 5.11662e-06 
628.018 5.03274e-06 
628.548 4.9647e-06 
629.078 4.90969e-06 
629.608 4.86513e-06 
630.139 4.82884e-06 
630.669 4.79912e-06 
631.199 4.77458e-06 
631.729 4.75416e-06 
632.26 4.73703e-06 
632.79 4.72254e-06 
633.32 4.71017e-06 
633.851 4.69952e-06 
634.381 4.69024e-06 
634.911 4.6821e-06 
635.441 4.67487e-06 
635.972 4.66837e-06 
636.502 4.66246e-06 
637.032 4.65704e-06 
637.562 4.65199e-06 
638.093 4.64723e-06 
638.623 4.64269e-06 
639.153 4.63833e-06 
639.684 4.63408e-06 
640.214 4.62992e-06 
640.744 4.62579e-06 
641.274 4.6217e-06 
641.805 4.61761e-06 
642.335 4.61351e-06 
642.865 4.6094e-06 
643.396 4.60528e-06 
643.926 4.60114e-06 
644.456 4.59702e-06 
644.986 4.59293e-06 
645.517 4.58891e-06 
646.047 4.58498e-06 
646.577 4.58121e-06 
647.107 4.57768e-06 
647.638 4.57447e-06 
648.168 4.57168e-06 
648.698 4.56946e-06 
649.229 4.568e-06 
649.759 4.5675e-06 
650.289 4.56825e-06 
650.819 4.57064e-06 
651.35 4.57513e-06 
651.88 4.58236e-06 
652.41 4.59321e-06 
652.94 4.60887e-06 
653.471 4.63105e-06 
654.001 4.66221e-06 
654.531 4.70613e-06 
655.062 4.76872e-06 
655.592 4.85987e-06 
656.122 4.99707e-06 
656.652 5.21401e-06 
657.183 5.58236e-06 
657.713 6.27446e-06 
658.243 7.75682e-06 
658.773 1.11511e-05 
659.304 1.49923e-05 
659.834 1.26478e-05 
660.364 8.97648e-06 
660.895 7.0419e-06 
661.425 6.19717e-06 
661.955 5.76677e-06 
662.485 5.49376e-06 
663.016 5.28574e-06 
663.546 5.1129e-06 
664.076 4.96756e-06 
664.606 4.84731e-06 
665.137 4.74961e-06 
665.667 4.67111e-06 
666.197 4.60834e-06 
666.728 4.55812e-06 
667.258 4.51782e-06 
667.788 4.48531e-06 
668.318 4.45896e-06 
668.849 4.43748e-06 
669.379 4.4199e-06 
669.909 4.40546e-06 
670.439 4.39356e-06 
670.97 4.38375e-06 
671.5 4.37566e-06 
672.03 4.369e-06 
672.561 4.36355e-06 
673.091 4.3591e-06 
673.621 4.35551e-06 
674.151 4.35266e-06 
674.682 4.35044e-06 
675.212 4.34877e-06 
675.742 4.34757e-06 
676.272 4.34679e-06 
676.803 4.34637e-06 
677.333 4.34628e-06 
677.863 4.34647e-06 
678.394 4.34692e-06 
678.924 4.34759e-06 
679.454 4.34847e-06 
679.984 4.34953e-06 
680.515 4.35076e-06 
681.045 4.35213e-06 
681.575 4.35365e-06 
682.105 4.35528e-06 
682.636 4.35703e-06 
683.166 4.35888e-06 
683.696 4.36083e-06 
684.227 4.36287e-06 
684.757 4.36499e-06 
685.287 4.36718e-06 
685.817 4.36944e-06 
686.348 4.37177e-06 
686.878 4.37416e-06 
687.408 4.3766e-06 
687.938 4.3791e-06 
688.469 4.38164e-06 
688.999 4.38423e-06 
689.529 4.38687e-06 
690.06 4.38954e-06 
690.59 4.39225e-06 
691.12 4.395e-06 
691.65 4.39778e-06 
692.181 4.40059e-06 
692.711 4.40343e-06 
693.241 4.4063e-06 
693.771 4.4092e-06 
694.302 4.41212e-06 
694.832 4.41507e-06 
695.362 4.41804e-06 
695.893 4.42103e-06 
696.423 4.42404e-06 
696.953 4.42708e-06 
697.483 4.43013e-06 
698.014 4.4332e-06 
698.544 4.43629e-06 
699.074 4.4394e-06 
699.604 4.44252e-06 
700.135 4.44566e-06 
700.665 4.44882e-06 
701.195 4.452e-06 
701.726 4.4552e-06 
702.256 4.45842e-06 
702.786 4.46165e-06 
703.316 4.46491e-06 
703.847 4.46819e-06 
704.377 4.4715e-06 
704.907 4.47484e-06 
705.438 4.4782e-06 
705.968 4.4816e-06 
706.498 4.48504e-06 
707.028 4.48851e-06 
707.559 4.49204e-06 
708.089 4.49563e-06 
708.619 4.49927e-06 
709.149 4.503e-06 
709.68 4.50681e-06 
710.21 4.51072e-06 
710.74 4.51474e-06 
711.271 4.51891e-06 
711.801 4.52324e-06 
712.331 4.52776e-06 
712.861 4.53252e-06 
713.392 4.53755e-06 
713.922 4.54292e-06 
714.452 4.54869e-06 
714.982 4.55497e-06 
715.513 4.56186e-06 
716.043 4.56951e-06 
716.573 4.57811e-06 
717.104 4.5879e-06 
717.634 4.59918e-06 
718.164 4.61235e-06 
718.694 4.62789e-06 
719.225 4.64633e-06 
719.755 4.66826e-06 
720.285 4.69405e-06 
720.815 4.72353e-06 
721.346 4.75533e-06 
721.876 4.78612e-06 
722.406 4.8106e-06 
722.937 4.82313e-06 
723.467 4.8209e-06 
723.997 4.80579e-06 
724.527 4.78303e-06 
725.058 4.75818e-06 
725.588 4.73504e-06 
726.118 4.71538e-06 
726.648 4.69961e-06 
727.179 4.68745e-06 
727.709 4.67834e-06 
728.239 4.67173e-06 
728.77 4.66713e-06 
729.3 4.66413e-06 
729.83 4.6624e-06 
730.36 4.6617e-06 
730.891 4.66181e-06 
731.421 4.6626e-06 
731.951 4.66392e-06 
732.481 4.6657e-06 
733.012 4.66784e-06 
733.542 4.6703e-06 
734.072 4.67303e-06 
734.603 4.67598e-06 
735.133 4.67911e-06 
735.663 4.68241e-06 
736.193 4.68586e-06 
736.724 4.68942e-06 
737.254 4.6931e-06 
737.784 4.69686e-06 
738.314 4.7007e-06 
738.845 4.70462e-06 
739.375 4.7086e-06 
739.905 4.71263e-06 
740.436 4.7167e-06 
740.966 4.72081e-06 
741.496 4.72496e-06 
742.026 4.72912e-06 
742.557 4.73331e-06 
743.087 4.73751e-06 
743.617 4.74172e-06 
744.147 4.74593e-06 
744.678 4.75013e-06 
745.208 4.75433e-06 
745.738 4.7585e-06 
746.269 4.76266e-06 
746.799 4.76679e-06 
747.329 4.77089e-06 
747.859 4.77495e-06 
748.39 4.77896e-06 
748.92 4.78292e-06 
749.45 4.78681e-06 
749.98 4.79064e-06 
750.511 4.79439e-06 
751.041 4.79806e-06 
751.571 4.80163e-06 
752.102 4.80511e-06 
752.632 4.80847e-06 
753.162 4.81172e-06 
753.692 4.81484e-06 
754.223 4.81782e-06 
754.753 4.82065e-06 
755.283 4.82333e-06 
755.813 4.82584e-06 
756.344 4.82816e-06 
756.874 4.8303e-06 
757.404 4.83224e-06 
757.935 4.83396e-06 
758.465 4.83546e-06 
758.995 4.83674e-06 
759.525 4.83777e-06 
760.056 4.83855e-06 
760.586 4.83906e-06 
761.116 4.8393e-06 
761.646 4.83927e-06 
762.177 4.83894e-06 
762.707 4.83833e-06 
763.237 4.83741e-06 
763.768 4.8362e-06 
764.298 4.83467e-06 
764.828 4.83284e-06 
765.358 4.83072e-06 
765.889 4.8283e-06 
766.419 4.82558e-06 
766.949 4.8226e-06 
767.479 4.81937e-06 
768.01 4.8159e-06 
768.54 4.81223e-06 
769.07 4.80841e-06 
769.601 4.80447e-06 
770.131 4.80047e-06 
770.661 4.79649e-06 
771.191 4.79264e-06 
771.722 4.78901e-06 
772.252 4.78576e-06 
772.782 4.78306e-06 
773.312 4.78116e-06 
773.843 4.78032e-06 
774.373 4.78092e-06 
774.903 4.78347e-06 
775.434 4.78859e-06 
775.964 4.79715e-06 
776.494 4.81034e-06 
777.024 4.82987e-06 
777.555 4.85816e-06 
778.085 4.89883e-06 
778.615 4.95754e-06 
779.146 5.04346e-06 
779.676 5.17225e-06 
780.206 5.3726e-06 
780.736 5.70152e-06 
781.267 6.28436e-06 
781.797 7.43263e-06 
782.327 9.99992e-06 
782.857 1.56529e-05 
783.388 1.97439e-05 
783.918 1.57807e-05 
784.448 1.03863e-05 
784.979 7.73981e-06 
785.509 6.57472e-06 
786.039 5.98327e-06 
786.569 5.62873e-06 
787.1 5.3837e-06 
787.63 5.19881e-06 
788.16 5.05411e-06 
788.69 4.93979e-06 
789.221 4.84932e-06 
789.751 4.77755e-06 
790.281 4.72027e-06 
790.812 4.67414e-06 
791.342 4.6366e-06 
791.872 4.60564e-06 
792.402 4.57976e-06 
792.933 4.55779e-06 
793.463 4.53886e-06 
793.993 4.52226e-06 
794.523 4.50744e-06 
795.054 4.494e-06 
795.584 4.4816e-06 
796.114 4.46994e-06 
796.645 4.4588e-06 
797.175 4.44801e-06 
797.705 4.4374e-06 
798.235 4.42682e-06 
798.766 4.41619e-06 
799.296 4.40542e-06 
799.826 4.3944e-06 
800.356 4.38305e-06 
800.887 4.37134e-06 
801.417 4.35923e-06 
801.947 4.34664e-06 
802.478 4.33355e-06 
803.008 4.31995e-06 
803.538 4.30583e-06 
804.068 4.29114e-06 
804.599 4.27592e-06 
805.129 4.26019e-06 
805.659 4.24395e-06 
806.189 4.22723e-06 
806.72 4.21011e-06 
807.25 4.19268e-06 
807.78 4.17498e-06 
808.311 4.15714e-06 
808.841 4.13935e-06 
809.371 4.12181e-06 
809.901 4.10471e-06 
810.432 4.0884e-06 
810.962 4.07328e-06 
811.492 4.05984e-06 
812.022 4.0487e-06 
812.553 4.04076e-06 
813.083 4.03713e-06 
813.613 4.0393e-06 
814.144 4.04935e-06 
814.674 4.07022e-06 
815.204 4.10613e-06 
815.734 4.16328e-06 
816.265 4.25127e-06 
816.795 4.38546e-06 
817.325 4.59166e-06 
817.855 4.91584e-06 
818.386 5.44635e-06 
818.916 6.36903e-06 
819.446 8.12108e-06 
819.977 1.18627e-05 
820.507 2.0611e-05 
821.037 3.42072e-05 
821.567 3.30662e-05 
822.098 2.0484e-05 
822.628 1.17879e-05 
823.158 7.98037e-06 
823.688 6.17948e-06 
824.219 5.21411e-06 
824.749 4.64263e-06 
825.279 4.27822e-06 
825.81 4.03235e-06 
826.34 3.85902e-06 
826.87 3.73249e-06 
827.4 3.63748e-06 
827.931 3.56447e-06 
828.461 3.50727e-06 
828.991 3.46173e-06 
829.521 3.42497e-06 
830.052 3.39496e-06 
830.582 3.37022e-06 
831.112 3.34965e-06 
831.643 3.33243e-06 
832.173 3.31793e-06 
832.703 3.30566e-06 
833.233 3.29525e-06 
833.764 3.28638e-06 
834.294 3.27881e-06 
834.824 3.27236e-06 
835.354 3.26684e-06 
835.885 3.26215e-06 
836.415 3.25815e-06 
836.945 3.25477e-06 
837.476 3.25193e-06 
838.006 3.24955e-06 
838.536 3.24759e-06 
839.066 3.246e-06 
839.597 3.24474e-06 
840.127 3.24376e-06 
840.657 3.24306e-06 
841.188 3.24258e-06 
841.718 3.24232e-06 
842.248 3.24226e-06 
842.778 3.24236e-06 
843.309 3.24263e-06 
843.839 3.24304e-06 
844.369 3.24359e-06 
844.899 3.24426e-06 
845.43 3.24504e-06 
845.96 3.24592e-06 
846.49 3.2469e-06 
847.021 3.24797e-06 
847.551 3.24912e-06 
848.081 3.25034e-06 
848.611 3.25164e-06 
849.142 3.253e-06 
849.672 3.25443e-06 
850.202 3.25592e-06 
850.732 3.25746e-06 
851.263 3.25905e-06 
851.793 3.26069e-06 
852.323 3.26237e-06 
852.854 3.2641e-06 
853.384 3.26587e-06 
853.914 3.26768e-06 
854.444 3.26953e-06 
854.975 3.27141e-06 
855.505 3.27332e-06 
856.035 3.27527e-06 
856.565 3.27725e-06 
857.096 3.27926e-06 
857.626 3.28129e-06 
858.156 3.28335e-06 
858.687 3.28543e-06 
859.217 3.28755e-06 
859.747 3.28968e-06 
860.277 3.29184e-06 
860.808 3.29402e-06 
861.338 3.29622e-06 
861.868 3.29844e-06 
862.398 3.30069e-06 
862.929 3.30295e-06 
863.459 3.30523e-06 
863.989 3.30753e-06 
864.52 3.30985e-06 
865.05 3.31218e-06 
865.58 3.31453e-06 
866.11 3.3169e-06 
866.641 3.31928e-06 
867.171 3.32168e-06 
867.701 3.32409e-06 
868.231 3.32652e-06 
868.762 3.32897e-06 
869.292 3.33142e-06 
869.822 3.3339e-06 
870.353 3.33638e-06 
870.883 3.33888e-06 
871.413 3.3414e-06 
871.943 3.34393e-06 
872.474 3.34647e-06 
873.004 3.34902e-06 
873.534 3.35158e-06 
874.064 3.35416e-06 
874.595 3.35675e-06 
875.125 3.35935e-06 
875.655 3.36197e-06 
876.186 3.3646e-06 
876.716 3.36723e-06 
877.246 3.36988e-06 
877.776 3.37255e-06 
878.307 3.37522e-06 
878.837 3.3779e-06 
879.367 3.3806e-06 
879.897 3.3833e-06 
880.428 3.38602e-06 
880.958 3.38875e-06 
881.488 3.39149e-06 
882.019 3.39424e-06 
882.549 3.397e-06 
883.079 3.39978e-06 
883.609 3.40256e-06 
884.14 3.40535e-06 
884.67 3.40816e-06 
885.2 3.41097e-06 
885.73 3.4138e-06 
886.261 3.41663e-06 
886.791 3.41948e-06 
887.321 3.42234e-06 
887.852 3.42521e-06 
888.382 3.42809e-06 
888.912 3.43097e-06 
889.442 3.43387e-06 
889.973 3.43678e-06 
890.503 3.4397e-06 
891.033 3.44264e-06 
891.563 3.44558e-06 
892.094 3.44853e-06 
892.624 3.45149e-06 
893.154 3.45446e-06 
893.685 3.45745e-06 
894.215 3.46044e-06 
894.745 3.46345e-06 
895.275 3.46646e-06 
895.806 3.46949e-06 
896.336 3.47252e-06 
896.866 3.47557e-06 
897.396 3.47862e-06 
897.927 3.48169e-06 
898.457 3.48477e-06 
898.987 3.48786e-06 
899.518 3.49096e-06 
900.048 3.49407e-06 
900.578 3.49719e-06 
901.108 3.50032e-06 
901.639 3.50346e-06 
902.169 3.50661e-06 
902.699 3.50978e-06 
903.229 3.51295e-06 
903.76 3.51614e-06 
904.29 3.51934e-06 
904.82 3.52254e-06 
905.351 3.52576e-06 
905.881 3.52899e-06 
906.411 3.53224e-06 
906.941 3.53549e-06 
907.472 3.53875e-06 
908.002 3.54203e-06 
908.532 3.54532e-06 
909.062 3.54861e-06 
909.593 3.55192e-06 
910.123 3.55525e-06 
