#energy geo_1 
400 1.45745e-06 
400.53 1.45818e-06 
401.061 1.4589e-06 
401.591 1.45963e-06 
402.121 1.46036e-06 
402.651 1.46109e-06 
403.182 1.46182e-06 
403.712 1.46255e-06 
404.242 1.46328e-06 
404.772 1.46402e-06 
405.303 1.46475e-06 
405.833 1.46549e-06 
406.363 1.46623e-06 
406.894 1.46697e-06 
407.424 1.46771e-06 
407.954 1.46846e-06 
408.484 1.4692e-06 
409.015 1.46995e-06 
409.545 1.4707e-06 
410.075 1.47145e-06 
410.605 1.4722e-06 
411.136 1.47296e-06 
411.666 1.47372e-06 
412.196 1.47447e-06 
412.727 1.47524e-06 
413.257 1.476e-06 
413.787 1.47676e-06 
414.317 1.47753e-06 
414.848 1.4783e-06 
415.378 1.47907e-06 
415.908 1.47984e-06 
416.438 1.48062e-06 
416.969 1.48139e-06 
417.499 1.48217e-06 
418.029 1.48295e-06 
418.56 1.48373e-06 
419.09 1.48451e-06 
419.62 1.4853e-06 
420.15 1.48609e-06 
420.681 1.48687e-06 
421.211 1.48766e-06 
421.741 1.48845e-06 
422.271 1.48925e-06 
422.802 1.49004e-06 
423.332 1.49084e-06 
423.862 1.49163e-06 
424.393 1.49243e-06 
424.923 1.49323e-06 
425.453 1.49403e-06 
425.983 1.49484e-06 
426.514 1.49564e-06 
427.044 1.49645e-06 
427.574 1.49725e-06 
428.104 1.49806e-06 
428.635 1.49887e-06 
429.165 1.49968e-06 
429.695 1.5005e-06 
430.226 1.50131e-06 
430.756 1.50213e-06 
431.286 1.50295e-06 
431.816 1.50377e-06 
432.347 1.50459e-06 
432.877 1.50541e-06 
433.407 1.50623e-06 
433.938 1.50706e-06 
434.468 1.50789e-06 
434.998 1.50872e-06 
435.528 1.50955e-06 
436.059 1.51038e-06 
436.589 1.51122e-06 
437.119 1.51205e-06 
437.649 1.51289e-06 
438.18 1.51373e-06 
438.71 1.51458e-06 
439.24 1.51542e-06 
439.771 1.51627e-06 
440.301 1.51712e-06 
440.831 1.51797e-06 
441.361 1.51883e-06 
441.892 1.51968e-06 
442.422 1.52054e-06 
442.952 1.5214e-06 
443.482 1.52227e-06 
444.013 1.52314e-06 
444.543 1.52401e-06 
445.073 1.52488e-06 
445.604 1.52575e-06 
446.134 1.52663e-06 
446.664 1.52751e-06 
447.194 1.52839e-06 
447.725 1.52928e-06 
448.255 1.53016e-06 
448.785 1.53105e-06 
449.315 1.53194e-06 
449.846 1.53283e-06 
450.376 1.53373e-06 
450.906 1.53462e-06 
451.437 1.53552e-06 
451.967 1.53642e-06 
452.497 1.53732e-06 
453.027 1.53823e-06 
453.558 1.53913e-06 
454.088 1.54004e-06 
454.618 1.54095e-06 
455.148 1.54186e-06 
455.679 1.54277e-06 
456.209 1.54368e-06 
456.739 1.54459e-06 
457.27 1.54551e-06 
457.8 1.54642e-06 
458.33 1.54734e-06 
458.86 1.54826e-06 
459.391 1.54918e-06 
459.921 1.55011e-06 
460.451 1.55103e-06 
460.981 1.55196e-06 
461.512 1.55289e-06 
462.042 1.55382e-06 
462.572 1.55475e-06 
463.103 1.55569e-06 
463.633 1.55663e-06 
464.163 1.55757e-06 
464.693 1.55852e-06 
465.224 1.55947e-06 
465.754 1.56042e-06 
466.284 1.56138e-06 
466.814 1.56234e-06 
467.345 1.5633e-06 
467.875 1.56427e-06 
468.405 1.56524e-06 
468.936 1.56622e-06 
469.466 1.5672e-06 
469.996 1.56818e-06 
470.526 1.56916e-06 
471.057 1.57015e-06 
471.587 1.57114e-06 
472.117 1.57214e-06 
472.647 1.57313e-06 
473.178 1.57413e-06 
473.708 1.57513e-06 
474.238 1.57614e-06 
474.769 1.57715e-06 
475.299 1.57816e-06 
475.829 1.57917e-06 
476.359 1.58018e-06 
476.89 1.5812e-06 
477.42 1.58222e-06 
477.95 1.58324e-06 
478.48 1.58426e-06 
479.011 1.58528e-06 
479.541 1.58631e-06 
480.071 1.58733e-06 
480.602 1.58836e-06 
481.132 1.58939e-06 
481.662 1.59042e-06 
482.192 1.59144e-06 
482.723 1.59248e-06 
483.253 1.59351e-06 
483.783 1.59454e-06 
484.313 1.59558e-06 
484.844 1.59662e-06 
485.374 1.59766e-06 
485.904 1.5987e-06 
486.435 1.59974e-06 
486.965 1.60079e-06 
487.495 1.60184e-06 
488.025 1.60289e-06 
488.556 1.60395e-06 
489.086 1.60502e-06 
489.616 1.60608e-06 
490.146 1.60716e-06 
490.677 1.60824e-06 
491.207 1.60932e-06 
491.737 1.61041e-06 
492.268 1.61151e-06 
492.798 1.61261e-06 
493.328 1.61371e-06 
493.858 1.61483e-06 
494.389 1.61595e-06 
494.919 1.61707e-06 
495.449 1.6182e-06 
495.979 1.61933e-06 
496.51 1.62048e-06 
497.04 1.62162e-06 
497.57 1.62277e-06 
498.101 1.62393e-06 
498.631 1.62508e-06 
499.161 1.62625e-06 
499.691 1.62742e-06 
500.222 1.62859e-06 
500.752 1.62976e-06 
501.282 1.63094e-06 
501.812 1.63212e-06 
502.343 1.6333e-06 
502.873 1.63448e-06 
503.403 1.63566e-06 
503.934 1.63685e-06 
504.464 1.63803e-06 
504.994 1.63922e-06 
505.524 1.6404e-06 
506.055 1.64158e-06 
506.585 1.64276e-06 
507.115 1.64393e-06 
507.646 1.64511e-06 
508.176 1.64628e-06 
508.706 1.64745e-06 
509.236 1.64861e-06 
509.767 1.64977e-06 
510.297 1.65093e-06 
510.827 1.65209e-06 
511.357 1.65325e-06 
511.888 1.65441e-06 
512.418 1.65558e-06 
512.948 1.65674e-06 
513.479 1.65792e-06 
514.009 1.6591e-06 
514.539 1.66029e-06 
515.069 1.66149e-06 
515.6 1.6627e-06 
516.13 1.66393e-06 
516.66 1.66517e-06 
517.19 1.66642e-06 
517.721 1.66769e-06 
518.251 1.66897e-06 
518.781 1.67028e-06 
519.312 1.6716e-06 
519.842 1.67293e-06 
520.372 1.67429e-06 
520.902 1.67566e-06 
521.433 1.67704e-06 
521.963 1.67844e-06 
522.493 1.67986e-06 
523.023 1.68129e-06 
523.554 1.68273e-06 
524.084 1.68418e-06 
524.614 1.68564e-06 
525.145 1.6871e-06 
525.675 1.68857e-06 
526.205 1.69004e-06 
526.735 1.69151e-06 
527.266 1.69297e-06 
527.796 1.69442e-06 
528.326 1.69587e-06 
528.856 1.6973e-06 
529.387 1.69872e-06 
529.917 1.70013e-06 
530.447 1.70151e-06 
530.978 1.70288e-06 
531.508 1.70423e-06 
532.038 1.70556e-06 
532.568 1.70686e-06 
533.099 1.70815e-06 
533.629 1.7094e-06 
534.159 1.71064e-06 
534.689 1.71185e-06 
535.22 1.71305e-06 
535.75 1.71423e-06 
536.28 1.71541e-06 
536.811 1.71658e-06 
537.341 1.71775e-06 
537.871 1.71892e-06 
538.401 1.7201e-06 
538.932 1.72129e-06 
539.462 1.72249e-06 
539.992 1.72371e-06 
540.522 1.72496e-06 
541.053 1.72623e-06 
541.583 1.72753e-06 
542.113 1.72887e-06 
542.644 1.73025e-06 
543.174 1.73168e-06 
543.704 1.73316e-06 
544.234 1.73471e-06 
544.765 1.73632e-06 
545.295 1.73801e-06 
545.825 1.73977e-06 
546.355 1.74162e-06 
546.886 1.74356e-06 
547.416 1.74559e-06 
547.946 1.74771e-06 
548.477 1.74991e-06 
549.007 1.75219e-06 
549.537 1.75453e-06 
550.067 1.75693e-06 
550.598 1.75937e-06 
551.128 1.76182e-06 
551.658 1.76429e-06 
552.188 1.76674e-06 
552.719 1.76916e-06 
553.249 1.77154e-06 
553.779 1.77386e-06 
554.31 1.77611e-06 
554.84 1.77827e-06 
555.37 1.78034e-06 
555.9 1.7823e-06 
556.431 1.78413e-06 
556.961 1.78581e-06 
557.491 1.78733e-06 
558.021 1.78865e-06 
558.552 1.78976e-06 
559.082 1.79066e-06 
559.612 1.79134e-06 
560.143 1.79184e-06 
560.673 1.79219e-06 
561.203 1.79244e-06 
561.733 1.79265e-06 
562.264 1.79284e-06 
562.794 1.79307e-06 
563.324 1.79335e-06 
563.854 1.7937e-06 
564.385 1.79412e-06 
564.915 1.79462e-06 
565.445 1.7952e-06 
565.976 1.79586e-06 
566.506 1.79661e-06 
567.036 1.79746e-06 
567.566 1.79842e-06 
568.097 1.7995e-06 
568.627 1.80071e-06 
569.157 1.80208e-06 
569.688 1.80365e-06 
570.218 1.80544e-06 
570.748 1.80751e-06 
571.278 1.80991e-06 
571.809 1.81268e-06 
572.339 1.81586e-06 
572.869 1.81947e-06 
573.399 1.82351e-06 
573.93 1.82798e-06 
574.46 1.83288e-06 
574.99 1.83819e-06 
575.521 1.84388e-06 
576.051 1.84992e-06 
576.581 1.85629e-06 
577.111 1.86295e-06 
577.642 1.86984e-06 
578.172 1.87691e-06 
578.702 1.88412e-06 
579.232 1.89138e-06 
579.763 1.89863e-06 
580.293 1.90576e-06 
580.823 1.91269e-06 
581.354 1.91929e-06 
581.884 1.92539e-06 
582.414 1.93076e-06 
582.944 1.93506e-06 
583.475 1.93786e-06 
584.005 1.9387e-06 
584.535 1.93726e-06 
585.065 1.93345e-06 
585.596 1.9275e-06 
586.126 1.91994e-06 
586.656 1.91145e-06 
587.187 1.90272e-06 
587.717 1.89431e-06 
588.247 1.88661e-06 
588.777 1.87982e-06 
589.308 1.87398e-06 
589.838 1.86904e-06 
590.368 1.8649e-06 
590.898 1.86145e-06 
591.429 1.85857e-06 
591.959 1.85615e-06 
592.489 1.85408e-06 
593.02 1.85228e-06 
593.55 1.85068e-06 
594.08 1.84926e-06 
594.61 1.84808e-06 
595.141 1.84727e-06 
595.671 1.84703e-06 
596.201 1.84761e-06 
596.731 1.84926e-06 
597.262 1.85224e-06 
597.792 1.85675e-06 
598.322 1.86297e-06 
598.853 1.87102e-06 
599.383 1.88097e-06 
599.913 1.89284e-06 
600.443 1.90665e-06 
600.974 1.92242e-06 
601.504 1.94017e-06 
602.034 1.95996e-06 
602.564 1.9819e-06 
603.095 2.00614e-06 
603.625 2.0329e-06 
604.155 2.06249e-06 
604.686 2.09533e-06 
605.216 2.13199e-06 
605.746 2.17319e-06 
606.276 2.21971e-06 
606.807 2.27215e-06 
607.337 2.33043e-06 
607.867 2.39294e-06 
608.397 2.45525e-06 
608.928 2.50893e-06 
609.458 2.54199e-06 
609.988 2.54302e-06 
610.519 2.50806e-06 
611.049 2.44376e-06 
611.579 2.36352e-06 
612.109 2.28042e-06 
612.64 2.2031e-06 
613.17 2.13553e-06 
613.7 2.07849e-06 
614.23 2.03114e-06 
614.761 1.99208e-06 
615.291 1.9598e-06 
615.821 1.93293e-06 
616.352 1.91028e-06 
616.882 1.89084e-06 
617.412 1.87378e-06 
617.942 1.85841e-06 
618.473 1.84424e-06 
619.003 1.83098e-06 
619.533 1.81863e-06 
620.063 1.80743e-06 
620.594 1.79779e-06 
621.124 1.79021e-06 
621.654 1.78524e-06 
622.185 1.78342e-06 
622.715 1.78521e-06 
623.245 1.791e-06 
623.775 1.80109e-06 
624.306 1.81569e-06 
624.836 1.835e-06 
625.366 1.85922e-06 
625.896 1.88859e-06 
626.427 1.92341e-06 
626.957 1.96408e-06 
627.487 2.01112e-06 
628.018 2.06521e-06 
628.548 2.12724e-06 
629.078 2.1984e-06 
629.608 2.2803e-06 
630.139 2.37497e-06 
630.669 2.48473e-06 
631.199 2.61164e-06 
631.729 2.75637e-06 
632.26 2.91608e-06 
632.79 3.0813e-06 
633.32 3.23244e-06 
633.851 3.33963e-06 
634.381 3.37143e-06 
634.911 3.31182e-06 
635.441 3.17185e-06 
635.972 2.98317e-06 
636.502 2.78032e-06 
637.032 2.58791e-06 
637.562 2.41829e-06 
638.093 2.27485e-06 
638.623 2.15616e-06 
639.153 2.05887e-06 
639.684 1.9792e-06 
640.214 1.91363e-06 
640.744 1.85909e-06 
641.274 1.81297e-06 
641.805 1.77312e-06 
642.335 1.73768e-06 
642.865 1.70514e-06 
643.396 1.67439e-06 
643.926 1.6448e-06 
644.456 1.6163e-06 
644.986 1.58923e-06 
645.517 1.56426e-06 
646.047 1.54223e-06 
646.577 1.52408e-06 
647.107 1.51071e-06 
647.638 1.50283e-06 
648.168 1.50094e-06 
648.698 1.50532e-06 
649.229 1.51624e-06 
649.759 1.53401e-06 
650.289 1.55917e-06 
650.819 1.59253e-06 
651.35 1.63526e-06 
651.88 1.68899e-06 
652.41 1.7559e-06 
652.94 1.83889e-06 
653.471 1.94177e-06 
654.001 2.0694e-06 
654.531 2.22789e-06 
655.062 2.42449e-06 
655.592 2.66703e-06 
656.122 2.96199e-06 
656.652 3.31017e-06 
657.183 3.6987e-06 
657.713 4.09049e-06 
658.243 4.41877e-06 
658.773 4.60195e-06 
659.304 4.58367e-06 
659.834 4.36989e-06 
660.364 4.02407e-06 
660.895 3.62673e-06 
661.425 3.23965e-06 
661.955 2.89546e-06 
662.485 2.60444e-06 
663.016 2.36463e-06 
663.546 2.16921e-06 
664.076 2.01035e-06 
664.606 1.88087e-06 
665.137 1.77477e-06 
665.667 1.68724e-06 
666.197 1.6145e-06 
666.728 1.55358e-06 
667.258 1.50219e-06 
667.788 1.45854e-06 
668.318 1.4212e-06 
668.849 1.38907e-06 
669.379 1.36127e-06 
669.909 1.33709e-06 
670.439 1.31595e-06 
670.97 1.29741e-06 
671.5 1.28107e-06 
672.03 1.26664e-06 
672.561 1.25384e-06 
673.091 1.24247e-06 
673.621 1.23234e-06 
674.151 1.2233e-06 
674.682 1.21522e-06 
675.212 1.20798e-06 
675.742 1.2015e-06 
676.272 1.19569e-06 
676.803 1.19047e-06 
677.333 1.18579e-06 
677.863 1.18159e-06 
678.394 1.17782e-06 
678.924 1.17443e-06 
679.454 1.17139e-06 
679.984 1.16867e-06 
680.515 1.16622e-06 
681.045 1.16403e-06 
681.575 1.16207e-06 
682.105 1.16031e-06 
682.636 1.15874e-06 
683.166 1.15733e-06 
683.696 1.15608e-06 
684.227 1.15496e-06 
684.757 1.15396e-06 
685.287 1.15307e-06 
685.817 1.15228e-06 
686.348 1.15156e-06 
686.878 1.1509e-06 
687.408 1.15027e-06 
687.938 1.14967e-06 
688.469 1.14907e-06 
688.999 1.14847e-06 
689.529 1.14783e-06 
690.06 1.14715e-06 
690.59 1.14644e-06 
691.12 1.14577e-06 
691.65 1.14523e-06 
692.181 1.14475e-06 
692.711 1.14413e-06 
693.241 1.1434e-06 
693.771 1.14281e-06 
694.302 1.14229e-06 
694.832 1.14179e-06 
695.362 1.14139e-06 
695.893 1.14104e-06 
696.423 1.14083e-06 
696.953 1.14078e-06 
697.483 1.14078e-06 
698.014 1.14099e-06 
698.544 1.14143e-06 
699.074 1.14195e-06 
699.604 1.14262e-06 
700.135 1.1436e-06 
700.665 1.14479e-06 
701.195 1.14607e-06 
701.726 1.1476e-06 
702.256 1.14952e-06 
702.786 1.15165e-06 
703.316 1.15382e-06 
703.847 1.1562e-06 
704.377 1.15891e-06 
704.907 1.16178e-06 
705.438 1.16453e-06 
705.968 1.16724e-06 
706.498 1.17008e-06 
707.028 1.17293e-06 
707.559 1.17548e-06 
708.089 1.17767e-06 
708.619 1.17971e-06 
709.149 1.18173e-06 
709.68 1.18354e-06 
710.21 1.18495e-06 
710.74 1.18604e-06 
711.271 1.1871e-06 
711.801 1.18813e-06 
712.331 1.18885e-06 
712.861 1.189e-06 
713.392 1.18866e-06 
713.922 1.18805e-06 
714.452 1.18718e-06 
714.982 1.18587e-06 
715.513 1.18408e-06 
716.043 1.18216e-06 
716.573 1.18052e-06 
717.104 1.17924e-06 
717.634 1.17805e-06 
718.164 1.17671e-06 
718.694 1.17525e-06 
719.225 1.17384e-06 
719.755 1.17243e-06 
720.285 1.17077e-06 
720.815 1.16871e-06 
721.346 1.16642e-06 
721.876 1.16431e-06 
722.406 1.16252e-06 
722.937 1.16084e-06 
723.467 1.159e-06 
723.997 1.15711e-06 
724.527 1.1556e-06 
725.058 1.15489e-06 
725.588 1.15507e-06 
726.118 1.15618e-06 
726.648 1.15845e-06 
727.179 1.16242e-06 
727.709 1.16843e-06 
728.239 1.17634e-06 
728.77 1.18577e-06 
729.3 1.19653e-06 
729.83 1.20874e-06 
730.36 1.22247e-06 
730.891 1.23738e-06 
731.421 1.2527e-06 
731.951 1.26782e-06 
732.481 1.28263e-06 
733.012 1.29722e-06 
733.542 1.3115e-06 
734.072 1.3251e-06 
734.603 1.33774e-06 
735.133 1.3496e-06 
735.663 1.36117e-06 
736.193 1.37272e-06 
736.724 1.38411e-06 
737.254 1.39463e-06 
737.784 1.40317e-06 
738.314 1.40797e-06 
738.845 1.40668e-06 
739.375 1.39714e-06 
739.905 1.37887e-06 
740.436 1.35377e-06 
740.966 1.32552e-06 
741.496 1.2978e-06 
742.026 1.27316e-06 
742.557 1.25304e-06 
743.087 1.23789e-06 
743.617 1.22707e-06 
744.147 1.21888e-06 
744.678 1.21123e-06 
745.208 1.20291e-06 
745.738 1.19422e-06 
746.269 1.18608e-06 
746.799 1.179e-06 
747.329 1.17257e-06 
747.859 1.16596e-06 
748.39 1.1582e-06 
748.92 1.14806e-06 
749.45 1.13436e-06 
749.98 1.11726e-06 
750.511 1.09885e-06 
751.041 1.08239e-06 
751.571 1.07011e-06 
752.102 1.06304e-06 
752.632 1.06169e-06 
753.162 1.06608e-06 
753.692 1.07521e-06 
754.223 1.08792e-06 
754.753 1.10461e-06 
755.283 1.12784e-06 
755.813 1.15961e-06 
756.344 1.20007e-06 
756.874 1.24853e-06 
757.404 1.305e-06 
757.935 1.36967e-06 
758.465 1.44289e-06 
758.995 1.52587e-06 
759.525 1.61873e-06 
760.056 1.71687e-06 
760.586 1.81185e-06 
761.116 1.90233e-06 
761.646 2.00071e-06 
762.177 2.12819e-06 
762.707 2.30359e-06 
763.237 2.51988e-06 
763.768 2.72945e-06 
764.298 2.84883e-06 
764.828 2.79928e-06 
765.358 2.5847e-06 
765.889 2.27287e-06 
766.419 1.941e-06 
766.949 1.64079e-06 
767.479 1.39866e-06 
768.01 1.22739e-06 
768.54 1.12409e-06 
769.07 1.06467e-06 
769.601 1.0228e-06 
770.131 9.89393e-07 
770.661 9.72625e-07 
771.191 9.70029e-07 
771.722 9.66331e-07 
772.252 9.55081e-07 
772.782 9.51595e-07 
773.312 9.59905e-07 
773.843 9.55981e-07 
774.373 9.12926e-07 
774.903 8.41427e-07 
775.434 7.54005e-07 
775.964 6.55936e-07 
776.494 5.60881e-07 
777.024 4.60837e-07 
777.555 3.60948e-07 
778.085 2.89371e-07 
778.615 2.5247e-07 
779.146 2.37592e-07 
779.676 2.34211e-07 
780.206 2.37599e-07 
780.736 2.46454e-07 
781.267 2.60646e-07 
781.797 2.80439e-07 
782.327 3.06601e-07 
782.857 3.40532e-07 
783.388 3.84424e-07 
783.918 4.41604e-07 
784.448 5.17146e-07 
784.979 6.19006e-07 
785.509 7.60106e-07 
786.039 9.62516e-07 
786.569 1.26623e-06 
787.1 1.74949e-06 
787.63 2.58052e-06 
788.16 4.16565e-06 
788.69 7.60401e-06 
789.221 1.55433e-05 
789.751 2.5029e-05 
790.281 2.11173e-05 
790.812 1.13891e-05 
791.342 5.79749e-06 
791.872 3.34789e-06 
792.402 2.15615e-06 
792.933 1.50164e-06 
793.463 1.1069e-06 
793.993 8.51417e-07 
794.523 6.76876e-07 
795.054 5.52456e-07 
795.584 4.60678e-07 
796.114 3.91051e-07 
796.645 3.36974e-07 
797.175 2.94133e-07 
797.705 2.59609e-07 
798.235 2.31374e-07 
798.766 2.07981e-07 
799.296 1.88377e-07 
799.826 1.71782e-07 
800.356 1.57604e-07 
800.887 1.45393e-07 
801.417 1.34797e-07 
801.947 1.2554e-07 
802.478 1.17403e-07 
803.008 1.10211e-07 
803.538 1.03819e-07 
804.068 9.81133e-08 
804.599 9.29958e-08 
805.129 8.83873e-08 
805.659 8.42216e-08 
806.189 8.04419e-08 
806.72 7.70014e-08 
807.25 7.38596e-08 
807.78 7.0982e-08 
808.311 6.83392e-08 
808.841 6.59056e-08 
809.371 6.36591e-08 
809.901 6.15802e-08 
810.432 5.96525e-08 
810.962 5.78609e-08 
811.492 5.61925e-08 
812.022 5.4636e-08 
812.553 5.31812e-08 
813.083 5.18191e-08 
813.613 5.05416e-08 
814.144 4.93417e-08 
814.674 4.82128e-08 
815.204 4.71493e-08 
815.734 4.61459e-08 
816.265 4.51981e-08 
816.795 4.43016e-08 
817.325 4.34526e-08 
817.855 4.26476e-08 
818.386 4.18834e-08 
818.916 4.11573e-08 
819.446 4.04665e-08 
819.977 3.98088e-08 
820.507 3.91818e-08 
821.037 3.85837e-08 
821.567 3.80125e-08 
822.098 3.74666e-08 
822.628 3.69445e-08 
823.158 3.64445e-08 
823.688 3.59655e-08 
824.219 3.55063e-08 
824.749 3.50656e-08 
825.279 3.46424e-08 
825.81 3.42357e-08 
826.34 3.38447e-08 
826.87 3.34684e-08 
827.4 3.31062e-08 
827.931 3.27572e-08 
828.461 3.24207e-08 
828.991 3.20962e-08 
829.521 3.1783e-08 
830.052 3.14806e-08 
830.582 3.11883e-08 
831.112 3.09059e-08 
831.643 3.06327e-08 
832.173 3.03683e-08 
832.703 3.01125e-08 
833.233 2.98646e-08 
833.764 2.96244e-08 
834.294 2.93916e-08 
834.824 2.91658e-08 
835.354 2.89467e-08 
835.885 2.87341e-08 
836.415 2.85276e-08 
836.945 2.8327e-08 
837.476 2.81321e-08 
838.006 2.79425e-08 
838.536 2.77583e-08 
839.066 2.7579e-08 
839.597 2.74045e-08 
840.127 2.72346e-08 
840.657 2.70692e-08 
841.188 2.69081e-08 
841.718 2.6751e-08 
842.248 2.6598e-08 
842.778 2.64487e-08 
843.309 2.63031e-08 
843.839 2.61611e-08 
844.369 2.60225e-08 
844.899 2.58871e-08 
845.43 2.5755e-08 
845.96 2.56259e-08 
846.49 2.54998e-08 
847.021 2.53766e-08 
847.551 2.52561e-08 
848.081 2.51384e-08 
848.611 2.50232e-08 
849.142 2.49105e-08 
849.672 2.48003e-08 
850.202 2.46924e-08 
850.732 2.45868e-08 
851.263 2.44834e-08 
851.793 2.43821e-08 
852.323 2.4283e-08 
852.854 2.41858e-08 
853.384 2.40906e-08 
853.914 2.39973e-08 
854.444 2.39058e-08 
854.975 2.38161e-08 
855.505 2.37282e-08 
856.035 2.36419e-08 
856.565 2.35573e-08 
857.096 2.34743e-08 
857.626 2.33928e-08 
858.156 2.33128e-08 
858.687 2.32343e-08 
859.217 2.31573e-08 
859.747 2.30816e-08 
860.277 2.30073e-08 
860.808 2.29343e-08 
861.338 2.28626e-08 
861.868 2.27921e-08 
862.398 2.27229e-08 
862.929 2.26548e-08 
863.459 2.25879e-08 
863.989 2.25222e-08 
864.52 2.24575e-08 
865.05 2.23939e-08 
865.58 2.23314e-08 
866.11 2.22699e-08 
866.641 2.22094e-08 
867.171 2.21499e-08 
867.701 2.20914e-08 
868.231 2.20338e-08 
868.762 2.1977e-08 
869.292 2.19212e-08 
869.822 2.18663e-08 
870.353 2.18122e-08 
870.883 2.1759e-08 
871.413 2.17065e-08 
871.943 2.16549e-08 
872.474 2.1604e-08 
873.004 2.15539e-08 
873.534 2.15046e-08 
874.064 2.14559e-08 
874.595 2.1408e-08 
875.125 2.13608e-08 
875.655 2.13143e-08 
876.186 2.12684e-08 
876.716 2.12232e-08 
877.246 2.11787e-08 
877.776 2.11347e-08 
878.307 2.10914e-08 
878.837 2.10487e-08 
879.367 2.10066e-08 
879.897 2.0965e-08 
880.428 2.09241e-08 
880.958 2.08836e-08 
881.488 2.08437e-08 
882.019 2.08044e-08 
882.549 2.07656e-08 
883.079 2.07273e-08 
883.609 2.06895e-08 
884.14 2.06522e-08 
884.67 2.06153e-08 
885.2 2.0579e-08 
885.73 2.05431e-08 
886.261 2.05077e-08 
886.791 2.04727e-08 
887.321 2.04382e-08 
887.852 2.04041e-08 
888.382 2.03704e-08 
888.912 2.03372e-08 
889.442 2.03043e-08 
889.973 2.02719e-08 
890.503 2.02399e-08 
891.033 2.02082e-08 
891.563 2.0177e-08 
892.094 2.01461e-08 
892.624 2.01156e-08 
893.154 2.00855e-08 
893.685 2.00557e-08 
894.215 2.00263e-08 
894.745 1.99973e-08 
895.275 1.99685e-08 
895.806 1.99402e-08 
896.336 1.99121e-08 
896.866 1.98844e-08 
897.396 1.98571e-08 
897.927 1.983e-08 
898.457 1.98033e-08 
898.987 1.97769e-08 
899.518 1.97507e-08 
900.048 1.97249e-08 
900.578 1.96994e-08 
901.108 1.96742e-08 
901.639 1.96492e-08 
902.169 1.96246e-08 
902.699 1.96002e-08 
903.229 1.95761e-08 
903.76 1.95523e-08 
904.29 1.95288e-08 
904.82 1.95055e-08 
905.351 1.94825e-08 
905.881 1.94597e-08 
906.411 1.94372e-08 
906.941 1.9415e-08 
907.472 1.9393e-08 
908.002 1.93712e-08 
908.532 1.93497e-08 
909.062 1.93284e-08 
