#energy geo_1 
400 2.0934e-06 
400.53 2.09372e-06 
401.061 2.09404e-06 
401.591 2.09436e-06 
402.121 2.09469e-06 
402.651 2.09501e-06 
403.182 2.09533e-06 
403.712 2.09565e-06 
404.242 2.09597e-06 
404.772 2.09629e-06 
405.303 2.09662e-06 
405.833 2.09694e-06 
406.363 2.09726e-06 
406.894 2.09758e-06 
407.424 2.09791e-06 
407.954 2.09823e-06 
408.484 2.09855e-06 
409.015 2.09888e-06 
409.545 2.0992e-06 
410.075 2.09953e-06 
410.605 2.09985e-06 
411.136 2.10018e-06 
411.666 2.1005e-06 
412.196 2.10083e-06 
412.727 2.10116e-06 
413.257 2.10148e-06 
413.787 2.10181e-06 
414.317 2.10213e-06 
414.848 2.10246e-06 
415.378 2.10279e-06 
415.908 2.10312e-06 
416.438 2.10344e-06 
416.969 2.10377e-06 
417.499 2.1041e-06 
418.029 2.10443e-06 
418.56 2.10476e-06 
419.09 2.10509e-06 
419.62 2.10542e-06 
420.15 2.10575e-06 
420.681 2.10608e-06 
421.211 2.10641e-06 
421.741 2.10674e-06 
422.271 2.10707e-06 
422.802 2.1074e-06 
423.332 2.10773e-06 
423.862 2.10807e-06 
424.393 2.1084e-06 
424.923 2.10873e-06 
425.453 2.10907e-06 
425.983 2.1094e-06 
426.514 2.10973e-06 
427.044 2.11007e-06 
427.574 2.1104e-06 
428.104 2.11073e-06 
428.635 2.11107e-06 
429.165 2.1114e-06 
429.695 2.11174e-06 
430.226 2.11207e-06 
430.756 2.11241e-06 
431.286 2.11274e-06 
431.816 2.11308e-06 
432.347 2.11341e-06 
432.877 2.11375e-06 
433.407 2.11409e-06 
433.938 2.11442e-06 
434.468 2.11476e-06 
434.998 2.1151e-06 
435.528 2.11544e-06 
436.059 2.11577e-06 
436.589 2.11611e-06 
437.119 2.11645e-06 
437.649 2.11679e-06 
438.18 2.11714e-06 
438.71 2.11748e-06 
439.24 2.11782e-06 
439.771 2.11816e-06 
440.301 2.1185e-06 
440.831 2.11885e-06 
441.361 2.11919e-06 
441.892 2.11953e-06 
442.422 2.11987e-06 
442.952 2.12022e-06 
443.482 2.12056e-06 
444.013 2.12091e-06 
444.543 2.12125e-06 
445.073 2.12159e-06 
445.604 2.12194e-06 
446.134 2.12228e-06 
446.664 2.12263e-06 
447.194 2.12297e-06 
447.725 2.12332e-06 
448.255 2.12367e-06 
448.785 2.12401e-06 
449.315 2.12436e-06 
449.846 2.12471e-06 
450.376 2.12506e-06 
450.906 2.12541e-06 
451.437 2.12575e-06 
451.967 2.1261e-06 
452.497 2.12645e-06 
453.027 2.1268e-06 
453.558 2.12715e-06 
454.088 2.1275e-06 
454.618 2.12785e-06 
455.148 2.1282e-06 
455.679 2.12855e-06 
456.209 2.1289e-06 
456.739 2.12925e-06 
457.27 2.1296e-06 
457.8 2.12995e-06 
458.33 2.13031e-06 
458.86 2.13066e-06 
459.391 2.13101e-06 
459.921 2.13136e-06 
460.451 2.13172e-06 
460.981 2.13207e-06 
461.512 2.13242e-06 
462.042 2.13278e-06 
462.572 2.13313e-06 
463.103 2.13349e-06 
463.633 2.13384e-06 
464.163 2.1342e-06 
464.693 2.13455e-06 
465.224 2.13491e-06 
465.754 2.13527e-06 
466.284 2.13563e-06 
466.814 2.13598e-06 
467.345 2.13634e-06 
467.875 2.1367e-06 
468.405 2.13706e-06 
468.936 2.13742e-06 
469.466 2.13778e-06 
469.996 2.13814e-06 
470.526 2.1385e-06 
471.057 2.13886e-06 
471.587 2.13922e-06 
472.117 2.13958e-06 
472.647 2.13994e-06 
473.178 2.14031e-06 
473.708 2.14067e-06 
474.238 2.14103e-06 
474.769 2.1414e-06 
475.299 2.14176e-06 
475.829 2.14213e-06 
476.359 2.14249e-06 
476.89 2.14286e-06 
477.42 2.14322e-06 
477.95 2.14359e-06 
478.48 2.14396e-06 
479.011 2.14432e-06 
479.541 2.14469e-06 
480.071 2.14506e-06 
480.602 2.14543e-06 
481.132 2.14579e-06 
481.662 2.14616e-06 
482.192 2.14653e-06 
482.723 2.1469e-06 
483.253 2.14727e-06 
483.783 2.14764e-06 
484.313 2.14801e-06 
484.844 2.14838e-06 
485.374 2.14876e-06 
485.904 2.14913e-06 
486.435 2.1495e-06 
486.965 2.14987e-06 
487.495 2.15024e-06 
488.025 2.15062e-06 
488.556 2.15099e-06 
489.086 2.15136e-06 
489.616 2.15174e-06 
490.146 2.15211e-06 
490.677 2.15249e-06 
491.207 2.15286e-06 
491.737 2.15324e-06 
492.268 2.15362e-06 
492.798 2.15399e-06 
493.328 2.15437e-06 
493.858 2.15475e-06 
494.389 2.15512e-06 
494.919 2.1555e-06 
495.449 2.15588e-06 
495.979 2.15626e-06 
496.51 2.15664e-06 
497.04 2.15702e-06 
497.57 2.1574e-06 
498.101 2.15778e-06 
498.631 2.15816e-06 
499.161 2.15854e-06 
499.691 2.15892e-06 
500.222 2.1593e-06 
500.752 2.15969e-06 
501.282 2.16007e-06 
501.812 2.16045e-06 
502.343 2.16084e-06 
502.873 2.16122e-06 
503.403 2.16161e-06 
503.934 2.16199e-06 
504.464 2.16238e-06 
504.994 2.16276e-06 
505.524 2.16315e-06 
506.055 2.16354e-06 
506.585 2.16392e-06 
507.115 2.16431e-06 
507.646 2.1647e-06 
508.176 2.16509e-06 
508.706 2.16548e-06 
509.236 2.16587e-06 
509.767 2.16626e-06 
510.297 2.16665e-06 
510.827 2.16704e-06 
511.357 2.16743e-06 
511.888 2.16783e-06 
512.418 2.16822e-06 
512.948 2.16861e-06 
513.479 2.16901e-06 
514.009 2.1694e-06 
514.539 2.1698e-06 
515.069 2.17019e-06 
515.6 2.17059e-06 
516.13 2.17098e-06 
516.66 2.17138e-06 
517.19 2.17177e-06 
517.721 2.17217e-06 
518.251 2.17257e-06 
518.781 2.17297e-06 
519.312 2.17336e-06 
519.842 2.17376e-06 
520.372 2.17416e-06 
520.902 2.17456e-06 
521.433 2.17496e-06 
521.963 2.17536e-06 
522.493 2.17576e-06 
523.023 2.17616e-06 
523.554 2.17657e-06 
524.084 2.17697e-06 
524.614 2.17737e-06 
525.145 2.17777e-06 
525.675 2.17818e-06 
526.205 2.17858e-06 
526.735 2.17898e-06 
527.266 2.17939e-06 
527.796 2.17979e-06 
528.326 2.1802e-06 
528.856 2.1806e-06 
529.387 2.18101e-06 
529.917 2.18142e-06 
530.447 2.18182e-06 
530.978 2.18223e-06 
531.508 2.18264e-06 
532.038 2.18305e-06 
532.568 2.18346e-06 
533.099 2.18387e-06 
533.629 2.18428e-06 
534.159 2.18469e-06 
534.689 2.1851e-06 
535.22 2.18551e-06 
535.75 2.18592e-06 
536.28 2.18633e-06 
536.811 2.18675e-06 
537.341 2.18716e-06 
537.871 2.18757e-06 
538.401 2.18799e-06 
538.932 2.1884e-06 
539.462 2.18882e-06 
539.992 2.18924e-06 
540.522 2.18965e-06 
541.053 2.19007e-06 
541.583 2.19049e-06 
542.113 2.19091e-06 
542.644 2.19133e-06 
543.174 2.19175e-06 
543.704 2.19217e-06 
544.234 2.19259e-06 
544.765 2.19301e-06 
545.295 2.19343e-06 
545.825 2.19385e-06 
546.355 2.19427e-06 
546.886 2.1947e-06 
547.416 2.19512e-06 
547.946 2.19554e-06 
548.477 2.19597e-06 
549.007 2.1964e-06 
549.537 2.19682e-06 
550.067 2.19725e-06 
550.598 2.19767e-06 
551.128 2.1981e-06 
551.658 2.19853e-06 
552.188 2.19896e-06 
552.719 2.19939e-06 
553.249 2.19981e-06 
553.779 2.20024e-06 
554.31 2.20067e-06 
554.84 2.2011e-06 
555.37 2.20153e-06 
555.9 2.20196e-06 
556.431 2.2024e-06 
556.961 2.20283e-06 
557.491 2.20326e-06 
558.021 2.20369e-06 
558.552 2.20413e-06 
559.082 2.20456e-06 
559.612 2.205e-06 
560.143 2.20543e-06 
560.673 2.20587e-06 
561.203 2.2063e-06 
561.733 2.20674e-06 
562.264 2.20718e-06 
562.794 2.20761e-06 
563.324 2.20805e-06 
563.854 2.20849e-06 
564.385 2.20893e-06 
564.915 2.20937e-06 
565.445 2.20981e-06 
565.976 2.21025e-06 
566.506 2.21069e-06 
567.036 2.21113e-06 
567.566 2.21157e-06 
568.097 2.21202e-06 
568.627 2.21246e-06 
569.157 2.2129e-06 
569.688 2.21335e-06 
570.218 2.2138e-06 
570.748 2.21424e-06 
571.278 2.21469e-06 
571.809 2.21514e-06 
572.339 2.21558e-06 
572.869 2.21603e-06 
573.399 2.21648e-06 
573.93 2.21693e-06 
574.46 2.21738e-06 
574.99 2.21783e-06 
575.521 2.21828e-06 
576.051 2.21874e-06 
576.581 2.21919e-06 
577.111 2.21964e-06 
577.642 2.22009e-06 
578.172 2.22055e-06 
578.702 2.221e-06 
579.232 2.22146e-06 
579.763 2.22192e-06 
580.293 2.22237e-06 
580.823 2.22283e-06 
581.354 2.22329e-06 
581.884 2.22375e-06 
582.414 2.2242e-06 
582.944 2.22466e-06 
583.475 2.22512e-06 
584.005 2.22558e-06 
584.535 2.22605e-06 
585.065 2.22651e-06 
585.596 2.22697e-06 
586.126 2.22743e-06 
586.656 2.2279e-06 
587.187 2.22836e-06 
587.717 2.22882e-06 
588.247 2.22929e-06 
588.777 2.22976e-06 
589.308 2.23022e-06 
589.838 2.23069e-06 
590.368 2.23116e-06 
590.898 2.23162e-06 
591.429 2.23209e-06 
591.959 2.23256e-06 
592.489 2.23303e-06 
593.02 2.2335e-06 
593.55 2.23397e-06 
594.08 2.23444e-06 
594.61 2.23491e-06 
595.141 2.23539e-06 
595.671 2.23586e-06 
596.201 2.23633e-06 
596.731 2.23681e-06 
597.262 2.23728e-06 
597.792 2.23775e-06 
598.322 2.23823e-06 
598.853 2.23871e-06 
599.383 2.23918e-06 
599.913 2.23966e-06 
600.443 2.24014e-06 
600.974 2.24062e-06 
601.504 2.2411e-06 
602.034 2.24158e-06 
602.564 2.24206e-06 
603.095 2.24254e-06 
603.625 2.24302e-06 
604.155 2.24351e-06 
604.686 2.24399e-06 
605.216 2.24447e-06 
605.746 2.24496e-06 
606.276 2.24544e-06 
606.807 2.24593e-06 
607.337 2.24642e-06 
607.867 2.2469e-06 
608.397 2.24739e-06 
608.928 2.24788e-06 
609.458 2.24837e-06 
609.988 2.24886e-06 
610.519 2.24935e-06 
611.049 2.24985e-06 
611.579 2.25034e-06 
612.109 2.25083e-06 
612.64 2.25132e-06 
613.17 2.25182e-06 
613.7 2.25231e-06 
614.23 2.25281e-06 
614.761 2.25331e-06 
615.291 2.2538e-06 
615.821 2.2543e-06 
616.352 2.2548e-06 
616.882 2.2553e-06 
617.412 2.2558e-06 
617.942 2.2563e-06 
618.473 2.2568e-06 
619.003 2.2573e-06 
619.533 2.2578e-06 
620.063 2.2583e-06 
620.594 2.25881e-06 
621.124 2.25931e-06 
621.654 2.25982e-06 
622.185 2.26032e-06 
622.715 2.26083e-06 
623.245 2.26133e-06 
623.775 2.26184e-06 
624.306 2.26235e-06 
624.836 2.26286e-06 
625.366 2.26337e-06 
625.896 2.26388e-06 
626.427 2.26439e-06 
626.957 2.2649e-06 
627.487 2.26541e-06 
628.018 2.26592e-06 
628.548 2.26644e-06 
629.078 2.26695e-06 
629.608 2.26746e-06 
630.139 2.26798e-06 
630.669 2.26849e-06 
631.199 2.26901e-06 
631.729 2.26953e-06 
632.26 2.27004e-06 
632.79 2.27056e-06 
633.32 2.27108e-06 
633.851 2.2716e-06 
634.381 2.27212e-06 
634.911 2.27265e-06 
635.441 2.27317e-06 
635.972 2.27369e-06 
636.502 2.27421e-06 
637.032 2.27474e-06 
637.562 2.27526e-06 
638.093 2.27579e-06 
638.623 2.27632e-06 
639.153 2.27684e-06 
639.684 2.27737e-06 
640.214 2.2779e-06 
640.744 2.27843e-06 
641.274 2.27896e-06 
641.805 2.27949e-06 
642.335 2.28003e-06 
642.865 2.28056e-06 
643.396 2.28109e-06 
643.926 2.28163e-06 
644.456 2.28216e-06 
644.986 2.2827e-06 
645.517 2.28324e-06 
646.047 2.28377e-06 
646.577 2.28431e-06 
647.107 2.28485e-06 
647.638 2.28539e-06 
648.168 2.28593e-06 
648.698 2.28647e-06 
649.229 2.28701e-06 
649.759 2.28756e-06 
650.289 2.2881e-06 
650.819 2.28865e-06 
651.35 2.28919e-06 
651.88 2.28974e-06 
652.41 2.29028e-06 
652.94 2.29083e-06 
653.471 2.29138e-06 
654.001 2.29193e-06 
654.531 2.29248e-06 
655.062 2.29303e-06 
655.592 2.29358e-06 
656.122 2.29413e-06 
656.652 2.29468e-06 
657.183 2.29523e-06 
657.713 2.29579e-06 
658.243 2.29634e-06 
658.773 2.2969e-06 
659.304 2.29745e-06 
659.834 2.29801e-06 
660.364 2.29857e-06 
660.895 2.29913e-06 
661.425 2.29968e-06 
661.955 2.30025e-06 
662.485 2.30081e-06 
663.016 2.30137e-06 
663.546 2.30193e-06 
664.076 2.30249e-06 
664.606 2.30305e-06 
665.137 2.30362e-06 
665.667 2.30419e-06 
666.197 2.30475e-06 
666.728 2.30532e-06 
667.258 2.30589e-06 
667.788 2.30646e-06 
668.318 2.30703e-06 
668.849 2.3076e-06 
669.379 2.30817e-06 
669.909 2.30874e-06 
670.439 2.30931e-06 
670.97 2.30989e-06 
671.5 2.31046e-06 
672.03 2.31104e-06 
672.561 2.31162e-06 
673.091 2.31219e-06 
673.621 2.31277e-06 
674.151 2.31335e-06 
674.682 2.31393e-06 
675.212 2.31451e-06 
675.742 2.31509e-06 
676.272 2.31568e-06 
676.803 2.31626e-06 
677.333 2.31684e-06 
677.863 2.31743e-06 
678.394 2.31802e-06 
678.924 2.3186e-06 
679.454 2.31919e-06 
679.984 2.31978e-06 
680.515 2.32037e-06 
681.045 2.32096e-06 
681.575 2.32155e-06 
682.105 2.32214e-06 
682.636 2.32274e-06 
683.166 2.32333e-06 
683.696 2.32393e-06 
684.227 2.32452e-06 
684.757 2.32512e-06 
685.287 2.32572e-06 
685.817 2.32632e-06 
686.348 2.32692e-06 
686.878 2.32751e-06 
687.408 2.32811e-06 
687.938 2.32872e-06 
688.469 2.32932e-06 
688.999 2.32992e-06 
689.529 2.33053e-06 
690.06 2.33113e-06 
690.59 2.33174e-06 
691.12 2.33235e-06 
691.65 2.33296e-06 
692.181 2.33356e-06 
692.711 2.33417e-06 
693.241 2.33478e-06 
693.771 2.33539e-06 
694.302 2.33601e-06 
694.832 2.33662e-06 
695.362 2.33723e-06 
695.893 2.33785e-06 
696.423 2.33846e-06 
696.953 2.33908e-06 
697.483 2.3397e-06 
698.014 2.34032e-06 
698.544 2.34094e-06 
699.074 2.34156e-06 
699.604 2.34218e-06 
700.135 2.3428e-06 
700.665 2.34342e-06 
701.195 2.34405e-06 
701.726 2.34467e-06 
702.256 2.3453e-06 
702.786 2.34593e-06 
703.316 2.34656e-06 
703.847 2.34719e-06 
704.377 2.34782e-06 
704.907 2.34845e-06 
705.438 2.34908e-06 
705.968 2.34971e-06 
706.498 2.35035e-06 
707.028 2.35098e-06 
707.559 2.35162e-06 
708.089 2.35226e-06 
708.619 2.3529e-06 
709.149 2.35353e-06 
709.68 2.35418e-06 
710.21 2.35482e-06 
710.74 2.35546e-06 
711.271 2.3561e-06 
711.801 2.35675e-06 
712.331 2.35739e-06 
712.861 2.35804e-06 
713.392 2.35869e-06 
713.922 2.35934e-06 
714.452 2.35999e-06 
714.982 2.36064e-06 
715.513 2.36129e-06 
716.043 2.36194e-06 
716.573 2.3626e-06 
717.104 2.36325e-06 
717.634 2.36391e-06 
718.164 2.36456e-06 
718.694 2.36522e-06 
719.225 2.36588e-06 
719.755 2.36654e-06 
720.285 2.3672e-06 
720.815 2.36786e-06 
721.346 2.36852e-06 
721.876 2.36919e-06 
722.406 2.36985e-06 
722.937 2.37052e-06 
723.467 2.37118e-06 
723.997 2.37185e-06 
724.527 2.37252e-06 
725.058 2.37319e-06 
725.588 2.37386e-06 
726.118 2.37453e-06 
726.648 2.3752e-06 
727.179 2.37588e-06 
727.709 2.37655e-06 
728.239 2.37723e-06 
728.77 2.3779e-06 
729.3 2.37858e-06 
729.83 2.37926e-06 
730.36 2.37994e-06 
730.891 2.38062e-06 
731.421 2.38131e-06 
731.951 2.38199e-06 
732.481 2.38267e-06 
733.012 2.38336e-06 
733.542 2.38405e-06 
734.072 2.38473e-06 
734.603 2.38542e-06 
735.133 2.38611e-06 
735.663 2.38681e-06 
736.193 2.3875e-06 
736.724 2.38819e-06 
737.254 2.38889e-06 
737.784 2.38958e-06 
738.314 2.39028e-06 
738.845 2.39098e-06 
739.375 2.39168e-06 
739.905 2.39238e-06 
740.436 2.39308e-06 
740.966 2.39378e-06 
741.496 2.39449e-06 
742.026 2.39519e-06 
742.557 2.3959e-06 
743.087 2.39661e-06 
743.617 2.39732e-06 
744.147 2.39803e-06 
744.678 2.39874e-06 
745.208 2.39945e-06 
745.738 2.40016e-06 
746.269 2.40088e-06 
746.799 2.4016e-06 
747.329 2.40231e-06 
747.859 2.40303e-06 
748.39 2.40375e-06 
748.92 2.40447e-06 
749.45 2.4052e-06 
749.98 2.40592e-06 
750.511 2.40664e-06 
751.041 2.40737e-06 
751.571 2.40809e-06 
752.102 2.40882e-06 
752.632 2.40955e-06 
753.162 2.41028e-06 
753.692 2.41101e-06 
754.223 2.41174e-06 
754.753 2.41248e-06 
755.283 2.41321e-06 
755.813 2.41395e-06 
756.344 2.41469e-06 
756.874 2.41542e-06 
757.404 2.41616e-06 
757.935 2.4169e-06 
758.465 2.41764e-06 
758.995 2.41839e-06 
759.525 2.41913e-06 
760.056 2.41988e-06 
760.586 2.42062e-06 
761.116 2.42137e-06 
761.646 2.42212e-06 
762.177 2.42287e-06 
762.707 2.42362e-06 
763.237 2.42438e-06 
763.768 2.42513e-06 
764.298 2.42589e-06 
764.828 2.42664e-06 
765.358 2.4274e-06 
765.889 2.42816e-06 
766.419 2.42892e-06 
766.949 2.42968e-06 
767.479 2.43045e-06 
768.01 2.43121e-06 
768.54 2.43198e-06 
769.07 2.43275e-06 
769.601 2.43351e-06 
770.131 2.43428e-06 
770.661 2.43505e-06 
771.191 2.43583e-06 
771.722 2.4366e-06 
772.252 2.43738e-06 
772.782 2.43816e-06 
773.312 2.43894e-06 
773.843 2.43972e-06 
774.373 2.4405e-06 
774.903 2.44128e-06 
775.434 2.44207e-06 
775.964 2.44285e-06 
776.494 2.44364e-06 
777.024 2.44443e-06 
777.555 2.44522e-06 
778.085 2.44601e-06 
778.615 2.4468e-06 
779.146 2.44759e-06 
779.676 2.44839e-06 
780.206 2.44919e-06 
780.736 2.44998e-06 
781.267 2.45078e-06 
781.797 2.45158e-06 
782.327 2.45239e-06 
782.857 2.45319e-06 
783.388 2.45399e-06 
783.918 2.4548e-06 
784.448 2.45561e-06 
784.979 2.45642e-06 
785.509 2.45723e-06 
786.039 2.45804e-06 
786.569 2.45885e-06 
787.1 2.45967e-06 
787.63 2.46048e-06 
788.16 2.4613e-06 
788.69 2.46212e-06 
789.221 2.46294e-06 
789.751 2.46376e-06 
790.281 2.46458e-06 
790.812 2.46541e-06 
791.342 2.46623e-06 
791.872 2.46706e-06 
792.402 2.46789e-06 
792.933 2.46872e-06 
793.463 2.46955e-06 
793.993 2.47038e-06 
794.523 2.47121e-06 
795.054 2.47205e-06 
795.584 2.47289e-06 
796.114 2.47373e-06 
796.645 2.47457e-06 
797.175 2.47541e-06 
797.705 2.47625e-06 
798.235 2.4771e-06 
798.766 2.47795e-06 
799.296 2.47879e-06 
799.826 2.47965e-06 
800.356 2.4805e-06 
800.887 2.48135e-06 
801.417 2.48221e-06 
801.947 2.48306e-06 
802.478 2.48392e-06 
803.008 2.48478e-06 
803.538 2.48564e-06 
804.068 2.48651e-06 
804.599 2.48737e-06 
805.129 2.48824e-06 
805.659 2.48911e-06 
806.189 2.48997e-06 
806.72 2.49085e-06 
807.25 2.49172e-06 
807.78 2.49259e-06 
808.311 2.49347e-06 
808.841 2.49435e-06 
809.371 2.49523e-06 
809.901 2.49611e-06 
810.432 2.49699e-06 
810.962 2.49788e-06 
811.492 2.49876e-06 
812.022 2.49965e-06 
812.553 2.50054e-06 
813.083 2.50143e-06 
813.613 2.50232e-06 
814.144 2.50321e-06 
814.674 2.50411e-06 
815.204 2.50501e-06 
815.734 2.50591e-06 
816.265 2.5068e-06 
816.795 2.50771e-06 
817.325 2.50861e-06 
817.855 2.50951e-06 
818.386 2.51042e-06 
818.916 2.51133e-06 
819.446 2.51224e-06 
819.977 2.51315e-06 
820.507 2.51406e-06 
821.037 2.51498e-06 
821.567 2.5159e-06 
822.098 2.51681e-06 
822.628 2.51773e-06 
823.158 2.51865e-06 
823.688 2.51958e-06 
824.219 2.5205e-06 
824.749 2.52143e-06 
825.279 2.52236e-06 
825.81 2.52329e-06 
826.34 2.52422e-06 
826.87 2.52516e-06 
827.4 2.52609e-06 
827.931 2.52703e-06 
828.461 2.52797e-06 
828.991 2.52891e-06 
829.521 2.52985e-06 
830.052 2.5308e-06 
830.582 2.53175e-06 
831.112 2.5327e-06 
831.643 2.53365e-06 
832.173 2.5346e-06 
832.703 2.53556e-06 
833.233 2.53652e-06 
833.764 2.53747e-06 
834.294 2.53844e-06 
834.824 2.5394e-06 
835.354 2.54036e-06 
835.885 2.54133e-06 
836.415 2.5423e-06 
836.945 2.54327e-06 
837.476 2.54424e-06 
838.006 2.54521e-06 
838.536 2.54619e-06 
839.066 2.54717e-06 
839.597 2.54815e-06 
840.127 2.54913e-06 
840.657 2.55011e-06 
841.188 2.5511e-06 
841.718 2.55208e-06 
842.248 2.55307e-06 
842.778 2.55407e-06 
843.309 2.55506e-06 
843.839 2.55605e-06 
844.369 2.55705e-06 
844.899 2.55805e-06 
845.43 2.55905e-06 
845.96 2.56005e-06 
846.49 2.56106e-06 
847.021 2.56207e-06 
847.551 2.56307e-06 
848.081 2.56408e-06 
848.611 2.5651e-06 
849.142 2.56611e-06 
849.672 2.56713e-06 
850.202 2.56815e-06 
850.732 2.56916e-06 
851.263 2.57019e-06 
851.793 2.57121e-06 
852.323 2.57224e-06 
852.854 2.57326e-06 
853.384 2.57429e-06 
853.914 2.57533e-06 
854.444 2.57636e-06 
854.975 2.5774e-06 
855.505 2.57844e-06 
856.035 2.57948e-06 
856.565 2.58052e-06 
857.096 2.58157e-06 
857.626 2.58262e-06 
858.156 2.58366e-06 
858.687 2.58472e-06 
859.217 2.58577e-06 
859.747 2.58683e-06 
860.277 2.58789e-06 
860.808 2.58895e-06 
861.338 2.59001e-06 
861.868 2.59107e-06 
862.398 2.59214e-06 
862.929 2.59321e-06 
863.459 2.59428e-06 
863.989 2.59536e-06 
864.52 2.59643e-06 
865.05 2.59751e-06 
865.58 2.59859e-06 
866.11 2.59968e-06 
866.641 2.60076e-06 
867.171 2.60185e-06 
867.701 2.60294e-06 
868.231 2.60403e-06 
868.762 2.60513e-06 
869.292 2.60622e-06 
869.822 2.60732e-06 
870.353 2.60842e-06 
870.883 2.60953e-06 
871.413 2.61063e-06 
871.943 2.61174e-06 
872.474 2.61285e-06 
873.004 2.61397e-06 
873.534 2.61508e-06 
874.064 2.6162e-06 
874.595 2.61732e-06 
875.125 2.61844e-06 
875.655 2.61956e-06 
876.186 2.62069e-06 
876.716 2.62182e-06 
877.246 2.62295e-06 
877.776 2.62409e-06 
878.307 2.62522e-06 
878.837 2.62636e-06 
879.367 2.6275e-06 
879.897 2.62864e-06 
880.428 2.62979e-06 
880.958 2.63094e-06 
881.488 2.63209e-06 
882.019 2.63324e-06 
882.549 2.6344e-06 
883.079 2.63556e-06 
883.609 2.63672e-06 
884.14 2.63788e-06 
884.67 2.63905e-06 
885.2 2.64022e-06 
885.73 2.64139e-06 
886.261 2.64257e-06 
886.791 2.64374e-06 
887.321 2.64493e-06 
887.852 2.64611e-06 
888.382 2.64729e-06 
888.912 2.64848e-06 
889.442 2.64967e-06 
889.973 2.65086e-06 
890.503 2.65206e-06 
891.033 2.65326e-06 
891.563 2.65446e-06 
892.094 2.65566e-06 
892.624 2.65687e-06 
893.154 2.65808e-06 
893.685 2.65929e-06 
894.215 2.66051e-06 
894.745 2.66173e-06 
895.275 2.66295e-06 
895.806 2.66417e-06 
896.336 2.66539e-06 
896.866 2.66662e-06 
897.396 2.66785e-06 
897.927 2.66909e-06 
898.457 2.67032e-06 
898.987 2.67156e-06 
899.518 2.67281e-06 
900.048 2.67405e-06 
900.578 2.6753e-06 
901.108 2.67655e-06 
901.639 2.6778e-06 
902.169 2.67906e-06 
902.699 2.68032e-06 
903.229 2.68158e-06 
903.76 2.68284e-06 
904.29 2.68411e-06 
904.82 2.68538e-06 
905.351 2.68666e-06 
905.881 2.68793e-06 
906.411 2.68921e-06 
906.941 2.6905e-06 
907.472 2.69178e-06 
908.002 2.69307e-06 
908.532 2.69437e-06 
909.062 2.69566e-06 
