#energy geo_1 
400 1.76739e-06 
400.53 1.7681e-06 
401.061 1.76884e-06 
401.591 1.76961e-06 
402.121 1.77041e-06 
402.651 1.7712e-06 
403.182 1.77199e-06 
403.712 1.77273e-06 
404.242 1.77341e-06 
404.772 1.77402e-06 
405.303 1.77452e-06 
405.833 1.7749e-06 
406.363 1.77517e-06 
406.894 1.77531e-06 
407.424 1.77536e-06 
407.954 1.77533e-06 
408.484 1.77524e-06 
409.015 1.77512e-06 
409.545 1.77499e-06 
410.075 1.77487e-06 
410.605 1.77478e-06 
411.136 1.77473e-06 
411.666 1.77473e-06 
412.196 1.7748e-06 
412.727 1.77494e-06 
413.257 1.77515e-06 
413.787 1.77544e-06 
414.317 1.77579e-06 
414.848 1.77621e-06 
415.378 1.77668e-06 
415.908 1.77721e-06 
416.438 1.77779e-06 
416.969 1.77842e-06 
417.499 1.7791e-06 
418.029 1.77982e-06 
418.56 1.78059e-06 
419.09 1.78141e-06 
419.62 1.78225e-06 
420.15 1.78313e-06 
420.681 1.78406e-06 
421.211 1.78504e-06 
421.741 1.78613e-06 
422.271 1.78736e-06 
422.802 1.78881e-06 
423.332 1.79053e-06 
423.862 1.79261e-06 
424.393 1.79512e-06 
424.923 1.79818e-06 
425.453 1.8019e-06 
425.983 1.80645e-06 
426.514 1.81201e-06 
427.044 1.81883e-06 
427.574 1.82716e-06 
428.104 1.83723e-06 
428.635 1.84908e-06 
429.165 1.86233e-06 
429.695 1.87581e-06 
430.226 1.88734e-06 
430.756 1.89412e-06 
431.286 1.89411e-06 
431.816 1.88742e-06 
432.347 1.87625e-06 
432.877 1.86337e-06 
433.407 1.85091e-06 
433.938 1.83996e-06 
434.468 1.83086e-06 
434.998 1.82351e-06 
435.528 1.8177e-06 
436.059 1.81315e-06 
436.589 1.8096e-06 
437.119 1.80685e-06 
437.649 1.80473e-06 
438.18 1.80307e-06 
438.71 1.80178e-06 
439.24 1.80073e-06 
439.771 1.79986e-06 
440.301 1.7991e-06 
440.831 1.79838e-06 
441.361 1.79769e-06 
441.892 1.79699e-06 
442.422 1.79629e-06 
442.952 1.79559e-06 
443.482 1.79491e-06 
444.013 1.79425e-06 
444.543 1.79364e-06 
445.073 1.79309e-06 
445.604 1.7926e-06 
446.134 1.79219e-06 
446.664 1.79187e-06 
447.194 1.79165e-06 
447.725 1.79152e-06 
448.255 1.79149e-06 
448.785 1.79156e-06 
449.315 1.79171e-06 
449.846 1.79195e-06 
450.376 1.79226e-06 
450.906 1.79264e-06 
451.437 1.79309e-06 
451.967 1.79359e-06 
452.497 1.79416e-06 
453.027 1.79479e-06 
453.558 1.79546e-06 
454.088 1.79618e-06 
454.618 1.79695e-06 
455.148 1.79776e-06 
455.679 1.79861e-06 
456.209 1.79954e-06 
456.739 1.80058e-06 
457.27 1.80178e-06 
457.8 1.8032e-06 
458.33 1.80492e-06 
458.86 1.807e-06 
459.391 1.80955e-06 
459.921 1.81266e-06 
460.451 1.81648e-06 
460.981 1.82116e-06 
461.512 1.82691e-06 
462.042 1.83398e-06 
462.572 1.84263e-06 
463.103 1.85308e-06 
463.633 1.8654e-06 
464.163 1.87918e-06 
464.693 1.8932e-06 
465.224 1.90517e-06 
465.754 1.91218e-06 
466.284 1.91212e-06 
466.814 1.90512e-06 
467.345 1.89343e-06 
467.875 1.87994e-06 
468.405 1.86686e-06 
468.936 1.85535e-06 
469.466 1.84576e-06 
469.996 1.83802e-06 
470.526 1.83188e-06 
471.057 1.82706e-06 
471.587 1.82331e-06 
472.117 1.82039e-06 
472.647 1.81812e-06 
473.178 1.81636e-06 
473.708 1.81496e-06 
474.238 1.81384e-06 
474.769 1.81289e-06 
475.299 1.81205e-06 
475.829 1.81126e-06 
476.359 1.81048e-06 
476.89 1.8097e-06 
477.42 1.80891e-06 
477.95 1.80812e-06 
478.48 1.80733e-06 
479.011 1.80657e-06 
479.541 1.80585e-06 
480.071 1.80519e-06 
480.602 1.8046e-06 
481.132 1.80409e-06 
481.662 1.80367e-06 
482.192 1.80335e-06 
482.723 1.80314e-06 
483.253 1.80303e-06 
483.783 1.80302e-06 
484.313 1.80311e-06 
484.844 1.80329e-06 
485.374 1.80356e-06 
485.904 1.8039e-06 
486.435 1.80431e-06 
486.965 1.80479e-06 
487.495 1.80535e-06 
488.025 1.80596e-06 
488.556 1.80664e-06 
489.086 1.80737e-06 
489.616 1.80814e-06 
490.146 1.80896e-06 
490.677 1.80982e-06 
491.207 1.81076e-06 
491.737 1.81181e-06 
492.268 1.81302e-06 
492.798 1.81447e-06 
493.328 1.81623e-06 
493.858 1.81837e-06 
494.389 1.82101e-06 
494.919 1.82424e-06 
495.449 1.82823e-06 
495.979 1.83314e-06 
496.51 1.8392e-06 
497.04 1.84667e-06 
497.57 1.85584e-06 
498.101 1.86696e-06 
498.631 1.88006e-06 
499.161 1.89474e-06 
499.691 1.90966e-06 
500.222 1.92241e-06 
500.752 1.9299e-06 
501.282 1.9299e-06 
501.812 1.92252e-06 
502.343 1.91012e-06 
502.873 1.89576e-06 
503.403 1.88177e-06 
503.934 1.86939e-06 
504.464 1.85899e-06 
504.994 1.85051e-06 
505.524 1.84368e-06 
506.055 1.83821e-06 
506.585 1.83384e-06 
507.115 1.83034e-06 
507.646 1.82753e-06 
508.176 1.82528e-06 
508.706 1.82346e-06 
509.236 1.822e-06 
509.767 1.82083e-06 
510.297 1.81989e-06 
510.827 1.81915e-06 
511.357 1.81857e-06 
511.888 1.81812e-06 
512.418 1.81779e-06 
512.948 1.81755e-06 
513.479 1.81739e-06 
514.009 1.81731e-06 
514.539 1.81728e-06 
515.069 1.81731e-06 
515.6 1.81738e-06 
516.13 1.8175e-06 
516.66 1.81764e-06 
517.19 1.81782e-06 
517.721 1.81803e-06 
518.251 1.81826e-06 
518.781 1.81852e-06 
519.312 1.81879e-06 
519.842 1.81909e-06 
520.372 1.8194e-06 
520.902 1.81972e-06 
521.433 1.82006e-06 
521.963 1.82041e-06 
522.493 1.82077e-06 
523.023 1.82115e-06 
523.554 1.82153e-06 
524.084 1.82192e-06 
524.614 1.82232e-06 
525.145 1.82273e-06 
525.675 1.82314e-06 
526.205 1.82356e-06 
526.735 1.82399e-06 
527.266 1.82442e-06 
527.796 1.82486e-06 
528.326 1.8253e-06 
528.856 1.82575e-06 
529.387 1.8262e-06 
529.917 1.82665e-06 
530.447 1.82711e-06 
530.978 1.82758e-06 
531.508 1.82804e-06 
532.038 1.82851e-06 
532.568 1.82898e-06 
533.099 1.82946e-06 
533.629 1.82993e-06 
534.159 1.83041e-06 
534.689 1.83089e-06 
535.22 1.83138e-06 
535.75 1.83186e-06 
536.28 1.83235e-06 
536.811 1.83284e-06 
537.341 1.83333e-06 
537.871 1.83382e-06 
538.401 1.83432e-06 
538.932 1.83482e-06 
539.462 1.83532e-06 
539.992 1.83582e-06 
540.522 1.83632e-06 
541.053 1.83682e-06 
541.583 1.83733e-06 
542.113 1.83784e-06 
542.644 1.83834e-06 
543.174 1.83885e-06 
543.704 1.83936e-06 
544.234 1.83988e-06 
544.765 1.84039e-06 
545.295 1.84091e-06 
545.825 1.84142e-06 
546.355 1.84194e-06 
546.886 1.84246e-06 
547.416 1.84298e-06 
547.946 1.84351e-06 
548.477 1.84403e-06 
549.007 1.84455e-06 
549.537 1.84508e-06 
550.067 1.84561e-06 
550.598 1.84614e-06 
551.128 1.84667e-06 
551.658 1.8472e-06 
552.188 1.84773e-06 
552.719 1.84827e-06 
553.249 1.84881e-06 
553.779 1.84934e-06 
554.31 1.84988e-06 
554.84 1.85042e-06 
555.37 1.85096e-06 
555.9 1.85151e-06 
556.431 1.85205e-06 
556.961 1.8526e-06 
557.491 1.85314e-06 
558.021 1.85369e-06 
558.552 1.85424e-06 
559.082 1.85479e-06 
559.612 1.85535e-06 
560.143 1.8559e-06 
560.673 1.85646e-06 
561.203 1.85701e-06 
561.733 1.85757e-06 
562.264 1.85813e-06 
562.794 1.85869e-06 
563.324 1.85925e-06 
563.854 1.85982e-06 
564.385 1.86038e-06 
564.915 1.86095e-06 
565.445 1.86152e-06 
565.976 1.86208e-06 
566.506 1.86265e-06 
567.036 1.86322e-06 
567.566 1.86379e-06 
568.097 1.86437e-06 
568.627 1.86494e-06 
569.157 1.86551e-06 
569.688 1.86609e-06 
570.218 1.86667e-06 
570.748 1.86724e-06 
571.278 1.86782e-06 
571.809 1.8684e-06 
572.339 1.86898e-06 
572.869 1.86956e-06 
573.399 1.87014e-06 
573.93 1.87072e-06 
574.46 1.87131e-06 
574.99 1.87189e-06 
575.521 1.87248e-06 
576.051 1.87306e-06 
576.581 1.87365e-06 
577.111 1.87423e-06 
577.642 1.87482e-06 
578.172 1.87541e-06 
578.702 1.876e-06 
579.232 1.87659e-06 
579.763 1.87718e-06 
580.293 1.87777e-06 
580.823 1.87836e-06 
581.354 1.87895e-06 
581.884 1.87955e-06 
582.414 1.88014e-06 
582.944 1.88074e-06 
583.475 1.88133e-06 
584.005 1.88193e-06 
584.535 1.88253e-06 
585.065 1.88313e-06 
585.596 1.88373e-06 
586.126 1.88434e-06 
586.656 1.88494e-06 
587.187 1.88554e-06 
587.717 1.88615e-06 
588.247 1.88676e-06 
588.777 1.88737e-06 
589.308 1.88798e-06 
589.838 1.88859e-06 
590.368 1.88921e-06 
590.898 1.88982e-06 
591.429 1.89044e-06 
591.959 1.89106e-06 
592.489 1.89168e-06 
593.02 1.8923e-06 
593.55 1.89292e-06 
594.08 1.89355e-06 
594.61 1.89417e-06 
595.141 1.8948e-06 
595.671 1.89543e-06 
596.201 1.89606e-06 
596.731 1.89669e-06 
597.262 1.89733e-06 
597.792 1.89796e-06 
598.322 1.8986e-06 
598.853 1.89924e-06 
599.383 1.89987e-06 
599.913 1.90051e-06 
600.443 1.90116e-06 
600.974 1.9018e-06 
601.504 1.90244e-06 
602.034 1.90309e-06 
602.564 1.90373e-06 
603.095 1.90438e-06 
603.625 1.90503e-06 
604.155 1.90568e-06 
604.686 1.90632e-06 
605.216 1.90697e-06 
605.746 1.90763e-06 
606.276 1.90828e-06 
606.807 1.90893e-06 
607.337 1.90959e-06 
607.867 1.91024e-06 
608.397 1.91089e-06 
608.928 1.91155e-06 
609.458 1.91221e-06 
609.988 1.91286e-06 
610.519 1.91352e-06 
611.049 1.91418e-06 
611.579 1.91484e-06 
612.109 1.9155e-06 
612.64 1.91616e-06 
613.17 1.91683e-06 
613.7 1.91749e-06 
614.23 1.91815e-06 
614.761 1.91882e-06 
615.291 1.91948e-06 
615.821 1.92015e-06 
616.352 1.92082e-06 
616.882 1.92149e-06 
617.412 1.92216e-06 
617.942 1.92283e-06 
618.473 1.9235e-06 
619.003 1.92418e-06 
619.533 1.92485e-06 
620.063 1.92553e-06 
620.594 1.92621e-06 
621.124 1.92689e-06 
621.654 1.92757e-06 
622.185 1.92825e-06 
622.715 1.92894e-06 
623.245 1.92963e-06 
623.775 1.93032e-06 
624.306 1.93101e-06 
624.836 1.9317e-06 
625.366 1.9324e-06 
625.896 1.93309e-06 
626.427 1.93379e-06 
626.957 1.93449e-06 
627.487 1.9352e-06 
628.018 1.9359e-06 
628.548 1.93661e-06 
629.078 1.93731e-06 
629.608 1.93803e-06 
630.139 1.93874e-06 
630.669 1.93945e-06 
631.199 1.94017e-06 
631.729 1.94088e-06 
632.26 1.9416e-06 
632.79 1.94232e-06 
633.32 1.94304e-06 
633.851 1.94377e-06 
634.381 1.94449e-06 
634.911 1.94522e-06 
635.441 1.94595e-06 
635.972 1.94667e-06 
636.502 1.94741e-06 
637.032 1.94814e-06 
637.562 1.94887e-06 
638.093 1.9496e-06 
638.623 1.95033e-06 
639.153 1.95107e-06 
639.684 1.9518e-06 
640.214 1.95254e-06 
640.744 1.95328e-06 
641.274 1.95402e-06 
641.805 1.95475e-06 
642.335 1.95549e-06 
642.865 1.95623e-06 
643.396 1.95698e-06 
643.926 1.95772e-06 
644.456 1.95846e-06 
644.986 1.9592e-06 
645.517 1.95995e-06 
646.047 1.96069e-06 
646.577 1.96144e-06 
647.107 1.96218e-06 
647.638 1.96293e-06 
648.168 1.96368e-06 
648.698 1.96443e-06 
649.229 1.96518e-06 
649.759 1.96594e-06 
650.289 1.96669e-06 
650.819 1.96745e-06 
651.35 1.96821e-06 
651.88 1.96897e-06 
652.41 1.96973e-06 
652.94 1.9705e-06 
653.471 1.97126e-06 
654.001 1.97203e-06 
654.531 1.9728e-06 
655.062 1.97357e-06 
655.592 1.97435e-06 
656.122 1.97513e-06 
656.652 1.97591e-06 
657.183 1.97669e-06 
657.713 1.97748e-06 
658.243 1.97826e-06 
658.773 1.97905e-06 
659.304 1.97985e-06 
659.834 1.98064e-06 
660.364 1.98144e-06 
660.895 1.98224e-06 
661.425 1.98304e-06 
661.955 1.98384e-06 
662.485 1.98465e-06 
663.016 1.98546e-06 
663.546 1.98627e-06 
664.076 1.98708e-06 
664.606 1.9879e-06 
665.137 1.98871e-06 
665.667 1.98953e-06 
666.197 1.99035e-06 
666.728 1.99117e-06 
667.258 1.99199e-06 
667.788 1.99282e-06 
668.318 1.99364e-06 
668.849 1.99447e-06 
669.379 1.9953e-06 
669.909 1.99613e-06 
670.439 1.99696e-06 
670.97 1.99779e-06 
671.5 1.99862e-06 
672.03 1.99945e-06 
672.561 2.00029e-06 
673.091 2.00112e-06 
673.621 2.00196e-06 
674.151 2.00279e-06 
674.682 2.00363e-06 
675.212 2.00447e-06 
675.742 2.00531e-06 
676.272 2.00615e-06 
676.803 2.00699e-06 
677.333 2.00784e-06 
677.863 2.00868e-06 
678.394 2.00953e-06 
678.924 2.01038e-06 
679.454 2.01123e-06 
679.984 2.01208e-06 
680.515 2.01293e-06 
681.045 2.01379e-06 
681.575 2.01465e-06 
682.105 2.01551e-06 
682.636 2.01637e-06 
683.166 2.01723e-06 
683.696 2.0181e-06 
684.227 2.01897e-06 
684.757 2.01984e-06 
685.287 2.02072e-06 
685.817 2.02159e-06 
686.348 2.02247e-06 
686.878 2.02336e-06 
687.408 2.02424e-06 
687.938 2.02513e-06 
688.469 2.02602e-06 
688.999 2.02691e-06 
689.529 2.02781e-06 
690.06 2.02871e-06 
690.59 2.02961e-06 
691.12 2.03051e-06 
691.65 2.03142e-06 
692.181 2.03233e-06 
692.711 2.03324e-06 
693.241 2.03415e-06 
693.771 2.03507e-06 
694.302 2.03599e-06 
694.832 2.03691e-06 
695.362 2.03783e-06 
695.893 2.03876e-06 
696.423 2.03968e-06 
696.953 2.04061e-06 
697.483 2.04154e-06 
698.014 2.04248e-06 
698.544 2.04341e-06 
699.074 2.04435e-06 
699.604 2.04529e-06 
700.135 2.04623e-06 
700.665 2.04717e-06 
701.195 2.04812e-06 
701.726 2.04906e-06 
702.256 2.05001e-06 
702.786 2.05096e-06 
703.316 2.05191e-06 
703.847 2.05287e-06 
704.377 2.05382e-06 
704.907 2.05478e-06 
705.438 2.05574e-06 
705.968 2.0567e-06 
706.498 2.05766e-06 
707.028 2.05863e-06 
707.559 2.0596e-06 
708.089 2.06056e-06 
708.619 2.06153e-06 
709.149 2.06251e-06 
709.68 2.06348e-06 
710.21 2.06446e-06 
710.74 2.06544e-06 
711.271 2.06642e-06 
711.801 2.0674e-06 
712.331 2.06839e-06 
712.861 2.06938e-06 
713.392 2.07037e-06 
713.922 2.07136e-06 
714.452 2.07235e-06 
714.982 2.07335e-06 
715.513 2.07435e-06 
716.043 2.07535e-06 
716.573 2.07636e-06 
717.104 2.07736e-06 
717.634 2.07837e-06 
718.164 2.07938e-06 
718.694 2.0804e-06 
719.225 2.08142e-06 
719.755 2.08243e-06 
720.285 2.08346e-06 
720.815 2.08448e-06 
721.346 2.08551e-06 
721.876 2.08654e-06 
722.406 2.08758e-06 
722.937 2.08861e-06 
723.467 2.08965e-06 
723.997 2.0907e-06 
724.527 2.09174e-06 
725.058 2.09279e-06 
725.588 2.09385e-06 
726.118 2.0949e-06 
726.648 2.09596e-06 
727.179 2.09702e-06 
727.709 2.09809e-06 
728.239 2.09916e-06 
728.77 2.10023e-06 
729.3 2.1013e-06 
729.83 2.10238e-06 
730.36 2.10346e-06 
730.891 2.10454e-06 
731.421 2.10563e-06 
731.951 2.10672e-06 
732.481 2.10781e-06 
733.012 2.1089e-06 
733.542 2.11e-06 
734.072 2.1111e-06 
734.603 2.1122e-06 
735.133 2.1133e-06 
735.663 2.1144e-06 
736.193 2.11551e-06 
736.724 2.11662e-06 
737.254 2.11773e-06 
737.784 2.11884e-06 
738.314 2.11996e-06 
738.845 2.12107e-06 
739.375 2.12219e-06 
739.905 2.12331e-06 
740.436 2.12444e-06 
740.966 2.12556e-06 
741.496 2.12669e-06 
742.026 2.12782e-06 
742.557 2.12895e-06 
743.087 2.13008e-06 
743.617 2.13122e-06 
744.147 2.13236e-06 
744.678 2.1335e-06 
745.208 2.13464e-06 
745.738 2.13579e-06 
746.269 2.13694e-06 
746.799 2.1381e-06 
747.329 2.13926e-06 
747.859 2.14042e-06 
748.39 2.14158e-06 
748.92 2.14275e-06 
749.45 2.14392e-06 
749.98 2.1451e-06 
750.511 2.14628e-06 
751.041 2.14747e-06 
751.571 2.14865e-06 
752.102 2.14985e-06 
752.632 2.15104e-06 
753.162 2.15224e-06 
753.692 2.15345e-06 
754.223 2.15465e-06 
754.753 2.15586e-06 
755.283 2.15708e-06 
755.813 2.1583e-06 
756.344 2.15952e-06 
756.874 2.16074e-06 
757.404 2.16197e-06 
757.935 2.1632e-06 
758.465 2.16443e-06 
758.995 2.16567e-06 
759.525 2.16691e-06 
760.056 2.16815e-06 
760.586 2.16939e-06 
761.116 2.17064e-06 
761.646 2.17189e-06 
762.177 2.17314e-06 
762.707 2.17439e-06 
763.237 2.17565e-06 
763.768 2.17691e-06 
764.298 2.17817e-06 
764.828 2.17944e-06 
765.358 2.18071e-06 
765.889 2.18198e-06 
766.419 2.18326e-06 
766.949 2.18454e-06 
767.479 2.18582e-06 
768.01 2.18711e-06 
768.54 2.1884e-06 
769.07 2.18969e-06 
769.601 2.19099e-06 
770.131 2.19229e-06 
770.661 2.1936e-06 
771.191 2.19491e-06 
771.722 2.19622e-06 
772.252 2.19754e-06 
772.782 2.19887e-06 
773.312 2.20019e-06 
773.843 2.20152e-06 
774.373 2.20286e-06 
774.903 2.20419e-06 
775.434 2.20554e-06 
775.964 2.20688e-06 
776.494 2.20823e-06 
777.024 2.20958e-06 
777.555 2.21094e-06 
778.085 2.2123e-06 
778.615 2.21366e-06 
779.146 2.21502e-06 
779.676 2.21639e-06 
780.206 2.21776e-06 
780.736 2.21914e-06 
781.267 2.22051e-06 
781.797 2.22189e-06 
782.327 2.22327e-06 
782.857 2.22466e-06 
783.388 2.22605e-06 
783.918 2.22744e-06 
784.448 2.22884e-06 
784.979 2.23024e-06 
785.509 2.23164e-06 
786.039 2.23304e-06 
786.569 2.23445e-06 
787.1 2.23587e-06 
787.63 2.23728e-06 
788.16 2.23871e-06 
788.69 2.24013e-06 
789.221 2.24157e-06 
789.751 2.243e-06 
790.281 2.24444e-06 
790.812 2.24589e-06 
791.342 2.24734e-06 
791.872 2.2488e-06 
792.402 2.25026e-06 
792.933 2.25173e-06 
793.463 2.2532e-06 
793.993 2.25468e-06 
794.523 2.25616e-06 
795.054 2.25765e-06 
795.584 2.25914e-06 
796.114 2.26064e-06 
796.645 2.26214e-06 
797.175 2.26365e-06 
797.705 2.26516e-06 
798.235 2.26667e-06 
798.766 2.26819e-06 
799.296 2.26972e-06 
799.826 2.27125e-06 
800.356 2.27278e-06 
800.887 2.27432e-06 
801.417 2.27586e-06 
801.947 2.27741e-06 
802.478 2.27896e-06 
803.008 2.28051e-06 
803.538 2.28207e-06 
804.068 2.28364e-06 
804.599 2.28521e-06 
805.129 2.28678e-06 
805.659 2.28836e-06 
806.189 2.28994e-06 
806.72 2.29152e-06 
807.25 2.29311e-06 
807.78 2.2947e-06 
808.311 2.2963e-06 
808.841 2.2979e-06 
809.371 2.29951e-06 
809.901 2.30112e-06 
810.432 2.30273e-06 
810.962 2.30435e-06 
811.492 2.30597e-06 
812.022 2.30759e-06 
812.553 2.30922e-06 
813.083 2.31086e-06 
813.613 2.31249e-06 
814.144 2.31413e-06 
814.674 2.31577e-06 
815.204 2.31742e-06 
815.734 2.31907e-06 
816.265 2.32073e-06 
816.795 2.32239e-06 
817.325 2.32406e-06 
817.855 2.32573e-06 
818.386 2.32741e-06 
818.916 2.32909e-06 
819.446 2.33078e-06 
819.977 2.33248e-06 
820.507 2.33418e-06 
821.037 2.3359e-06 
821.567 2.33762e-06 
822.098 2.33935e-06 
822.628 2.34108e-06 
823.158 2.34283e-06 
823.688 2.34458e-06 
824.219 2.34634e-06 
824.749 2.34811e-06 
825.279 2.34988e-06 
825.81 2.35167e-06 
826.34 2.35345e-06 
826.87 2.35525e-06 
827.4 2.35705e-06 
827.931 2.35885e-06 
828.461 2.36066e-06 
828.991 2.36247e-06 
829.521 2.36429e-06 
830.052 2.36611e-06 
830.582 2.36793e-06 
831.112 2.36975e-06 
831.643 2.37158e-06 
832.173 2.37341e-06 
832.703 2.37524e-06 
833.233 2.37708e-06 
833.764 2.37892e-06 
834.294 2.38076e-06 
834.824 2.38261e-06 
835.354 2.38447e-06 
835.885 2.38633e-06 
836.415 2.3882e-06 
836.945 2.39007e-06 
837.476 2.39195e-06 
838.006 2.39384e-06 
838.536 2.39573e-06 
839.066 2.39764e-06 
839.597 2.39955e-06 
840.127 2.40146e-06 
840.657 2.40339e-06 
841.188 2.40531e-06 
841.718 2.40725e-06 
842.248 2.40919e-06 
842.778 2.41114e-06 
843.309 2.41309e-06 
843.839 2.41505e-06 
844.369 2.41702e-06 
844.899 2.41899e-06 
845.43 2.42096e-06 
845.96 2.42294e-06 
846.49 2.42493e-06 
847.021 2.42692e-06 
847.551 2.42892e-06 
848.081 2.43093e-06 
848.611 2.43295e-06 
849.142 2.43498e-06 
849.672 2.43701e-06 
850.202 2.43906e-06 
850.732 2.44111e-06 
851.263 2.44317e-06 
851.793 2.44524e-06 
852.323 2.44732e-06 
852.854 2.44941e-06 
853.384 2.45151e-06 
853.914 2.4536e-06 
854.444 2.45571e-06 
854.975 2.45782e-06 
855.505 2.45994e-06 
856.035 2.46206e-06 
856.565 2.46418e-06 
857.096 2.46631e-06 
857.626 2.46844e-06 
858.156 2.47057e-06 
858.687 2.47271e-06 
859.217 2.47486e-06 
859.747 2.47701e-06 
860.277 2.47917e-06 
860.808 2.48134e-06 
861.338 2.48351e-06 
861.868 2.4857e-06 
862.398 2.4879e-06 
862.929 2.49011e-06 
863.459 2.49233e-06 
863.989 2.49456e-06 
864.52 2.49681e-06 
865.05 2.49906e-06 
865.58 2.50132e-06 
866.11 2.50359e-06 
866.641 2.50587e-06 
867.171 2.50815e-06 
867.701 2.51043e-06 
868.231 2.51272e-06 
868.762 2.51501e-06 
869.292 2.51731e-06 
869.822 2.5196e-06 
870.353 2.5219e-06 
870.883 2.5242e-06 
871.413 2.52651e-06 
871.943 2.52882e-06 
872.474 2.53115e-06 
873.004 2.53348e-06 
873.534 2.53582e-06 
874.064 2.53817e-06 
874.595 2.54054e-06 
875.125 2.54292e-06 
875.655 2.54531e-06 
876.186 2.54772e-06 
876.716 2.55014e-06 
877.246 2.55257e-06 
877.776 2.55501e-06 
878.307 2.55747e-06 
878.837 2.55992e-06 
879.367 2.56239e-06 
879.897 2.56486e-06 
880.428 2.56734e-06 
880.958 2.56983e-06 
881.488 2.57235e-06 
882.019 2.57488e-06 
882.549 2.57742e-06 
883.079 2.57999e-06 
883.609 2.58257e-06 
884.14 2.58518e-06 
884.67 2.58779e-06 
885.2 2.59042e-06 
885.73 2.59307e-06 
886.261 2.59573e-06 
886.791 2.59841e-06 
887.321 2.6011e-06 
887.852 2.6038e-06 
888.382 2.60651e-06 
888.912 2.60923e-06 
889.442 2.61195e-06 
889.973 2.61468e-06 
890.503 2.61742e-06 
891.033 2.62016e-06 
891.563 2.6229e-06 
892.094 2.62565e-06 
892.624 2.6284e-06 
893.154 2.63115e-06 
893.685 2.63391e-06 
894.215 2.63668e-06 
894.745 2.63945e-06 
895.275 2.64223e-06 
895.806 2.64503e-06 
896.336 2.64784e-06 
896.866 2.65067e-06 
897.396 2.6535e-06 
897.927 2.65636e-06 
898.457 2.65924e-06 
898.987 2.66214e-06 
899.518 2.66505e-06 
900.048 2.66798e-06 
900.578 2.67093e-06 
901.108 2.67389e-06 
901.639 2.67687e-06 
902.169 2.67985e-06 
902.699 2.68283e-06 
903.229 2.68582e-06 
903.76 2.68881e-06 
904.29 2.69179e-06 
904.82 2.69476e-06 
905.351 2.69772e-06 
905.881 2.70068e-06 
906.411 2.70364e-06 
906.941 2.7066e-06 
907.472 2.70956e-06 
908.002 2.71253e-06 
908.532 2.71552e-06 
909.062 2.71853e-06 
