#energy geo_1 
400 1.57215e-06 
400.53 1.57258e-06 
401.061 1.57305e-06 
401.591 1.57355e-06 
402.121 1.57409e-06 
402.651 1.57466e-06 
403.182 1.57527e-06 
403.712 1.57591e-06 
404.242 1.57658e-06 
404.772 1.57728e-06 
405.303 1.578e-06 
405.833 1.57874e-06 
406.363 1.57949e-06 
406.894 1.58024e-06 
407.424 1.58097e-06 
407.954 1.58167e-06 
408.484 1.58232e-06 
409.015 1.5829e-06 
409.545 1.5834e-06 
410.075 1.5838e-06 
410.605 1.5841e-06 
411.136 1.5843e-06 
411.666 1.58442e-06 
412.196 1.58448e-06 
412.727 1.58448e-06 
413.257 1.58446e-06 
413.787 1.58442e-06 
414.317 1.58439e-06 
414.848 1.58437e-06 
415.378 1.58439e-06 
415.908 1.58445e-06 
416.438 1.58455e-06 
416.969 1.58469e-06 
417.499 1.58489e-06 
418.029 1.58513e-06 
418.56 1.58541e-06 
419.09 1.58574e-06 
419.62 1.58611e-06 
420.15 1.58653e-06 
420.681 1.587e-06 
421.211 1.58753e-06 
421.741 1.58813e-06 
422.271 1.58882e-06 
422.802 1.58964e-06 
423.332 1.59063e-06 
423.862 1.59184e-06 
424.393 1.59335e-06 
424.923 1.59522e-06 
425.453 1.59756e-06 
425.983 1.60048e-06 
426.514 1.60412e-06 
427.044 1.60866e-06 
427.574 1.6143e-06 
428.104 1.62127e-06 
428.635 1.62976e-06 
429.165 1.63979e-06 
429.695 1.65103e-06 
430.226 1.6624e-06 
430.756 1.67201e-06 
431.286 1.67745e-06 
431.816 1.67705e-06 
432.347 1.67103e-06 
432.877 1.66131e-06 
433.407 1.65027e-06 
433.938 1.63967e-06 
434.468 1.63037e-06 
434.998 1.62265e-06 
435.528 1.61641e-06 
436.059 1.61146e-06 
436.589 1.60756e-06 
437.119 1.6045e-06 
437.649 1.60211e-06 
438.18 1.60024e-06 
438.71 1.59879e-06 
439.24 1.59764e-06 
439.771 1.59673e-06 
440.301 1.59598e-06 
440.831 1.59535e-06 
441.361 1.59479e-06 
441.892 1.59427e-06 
442.422 1.59378e-06 
442.952 1.5933e-06 
443.482 1.59284e-06 
444.013 1.59241e-06 
444.543 1.592e-06 
445.073 1.59164e-06 
445.604 1.59132e-06 
446.134 1.59106e-06 
446.664 1.59087e-06 
447.194 1.59075e-06 
447.725 1.5907e-06 
448.255 1.59072e-06 
448.785 1.59081e-06 
449.315 1.59097e-06 
449.846 1.59121e-06 
450.376 1.5915e-06 
450.906 1.59186e-06 
451.437 1.59228e-06 
451.967 1.59276e-06 
452.497 1.59332e-06 
453.027 1.59394e-06 
453.558 1.59465e-06 
454.088 1.59547e-06 
454.618 1.59643e-06 
455.148 1.59757e-06 
455.679 1.59894e-06 
456.209 1.6006e-06 
456.739 1.60262e-06 
457.27 1.60509e-06 
457.8 1.60811e-06 
458.33 1.61183e-06 
458.86 1.61641e-06 
459.391 1.62204e-06 
459.921 1.62889e-06 
460.451 1.63707e-06 
460.981 1.64643e-06 
461.512 1.65634e-06 
462.042 1.66545e-06 
462.572 1.67179e-06 
463.103 1.67353e-06 
463.633 1.67016e-06 
464.163 1.66283e-06 
464.693 1.65355e-06 
465.224 1.6441e-06 
465.754 1.63551e-06 
466.284 1.62821e-06 
466.814 1.62221e-06 
467.345 1.61736e-06 
467.875 1.61349e-06 
468.405 1.61039e-06 
468.936 1.60791e-06 
469.466 1.60593e-06 
469.996 1.60434e-06 
470.526 1.60307e-06 
471.057 1.60204e-06 
471.587 1.60122e-06 
472.117 1.60057e-06 
472.647 1.60005e-06 
473.178 1.59964e-06 
473.708 1.59933e-06 
474.238 1.5991e-06 
474.769 1.59894e-06 
475.299 1.59883e-06 
475.829 1.59877e-06 
476.359 1.59876e-06 
476.89 1.59878e-06 
477.42 1.59883e-06 
477.95 1.59891e-06 
478.48 1.59901e-06 
479.011 1.59914e-06 
479.541 1.59928e-06 
480.071 1.59944e-06 
480.602 1.59962e-06 
481.132 1.59981e-06 
481.662 1.60001e-06 
482.192 1.60023e-06 
482.723 1.60045e-06 
483.253 1.60068e-06 
483.783 1.60092e-06 
484.313 1.60117e-06 
484.844 1.60143e-06 
485.374 1.60169e-06 
485.904 1.60196e-06 
486.435 1.60223e-06 
486.965 1.60251e-06 
487.495 1.60279e-06 
488.025 1.60308e-06 
488.556 1.60337e-06 
489.086 1.60367e-06 
489.616 1.60397e-06 
490.146 1.60427e-06 
490.677 1.60458e-06 
491.207 1.60489e-06 
491.737 1.6052e-06 
492.268 1.60552e-06 
492.798 1.60584e-06 
493.328 1.60616e-06 
493.858 1.60648e-06 
494.389 1.6068e-06 
494.919 1.60713e-06 
495.449 1.60745e-06 
495.979 1.60778e-06 
496.51 1.60811e-06 
497.04 1.60844e-06 
497.57 1.60878e-06 
498.101 1.60911e-06 
498.631 1.60945e-06 
499.161 1.60978e-06 
499.691 1.61012e-06 
500.222 1.61046e-06 
500.752 1.61079e-06 
501.282 1.61113e-06 
501.812 1.61147e-06 
502.343 1.61181e-06 
502.873 1.61216e-06 
503.403 1.6125e-06 
503.934 1.61284e-06 
504.464 1.61319e-06 
504.994 1.61353e-06 
505.524 1.61388e-06 
506.055 1.61422e-06 
506.585 1.61457e-06 
507.115 1.61492e-06 
507.646 1.61527e-06 
508.176 1.61562e-06 
508.706 1.61597e-06 
509.236 1.61632e-06 
509.767 1.61667e-06 
510.297 1.61703e-06 
510.827 1.61738e-06 
511.357 1.61774e-06 
511.888 1.61809e-06 
512.418 1.61845e-06 
512.948 1.6188e-06 
513.479 1.61916e-06 
514.009 1.61952e-06 
514.539 1.61988e-06 
515.069 1.62024e-06 
515.6 1.6206e-06 
516.13 1.62096e-06 
516.66 1.62132e-06 
517.19 1.62168e-06 
517.721 1.62205e-06 
518.251 1.62241e-06 
518.781 1.62278e-06 
519.312 1.62314e-06 
519.842 1.62351e-06 
520.372 1.62388e-06 
520.902 1.62425e-06 
521.433 1.62462e-06 
521.963 1.62499e-06 
522.493 1.62536e-06 
523.023 1.62573e-06 
523.554 1.6261e-06 
524.084 1.62648e-06 
524.614 1.62685e-06 
525.145 1.62723e-06 
525.675 1.62761e-06 
526.205 1.62798e-06 
526.735 1.62836e-06 
527.266 1.62874e-06 
527.796 1.62912e-06 
528.326 1.6295e-06 
528.856 1.62988e-06 
529.387 1.63026e-06 
529.917 1.63064e-06 
530.447 1.63102e-06 
530.978 1.6314e-06 
531.508 1.63178e-06 
532.038 1.63216e-06 
532.568 1.63254e-06 
533.099 1.63293e-06 
533.629 1.63331e-06 
534.159 1.63369e-06 
534.689 1.63408e-06 
535.22 1.63446e-06 
535.75 1.63484e-06 
536.28 1.63522e-06 
536.811 1.63561e-06 
537.341 1.63599e-06 
537.871 1.63638e-06 
538.401 1.63676e-06 
538.932 1.63714e-06 
539.462 1.63753e-06 
539.992 1.63791e-06 
540.522 1.6383e-06 
541.053 1.63869e-06 
541.583 1.63907e-06 
542.113 1.63946e-06 
542.644 1.63985e-06 
543.174 1.64023e-06 
543.704 1.64062e-06 
544.234 1.64101e-06 
544.765 1.6414e-06 
545.295 1.64179e-06 
545.825 1.64219e-06 
546.355 1.64258e-06 
546.886 1.64297e-06 
547.416 1.64337e-06 
547.946 1.64376e-06 
548.477 1.64416e-06 
549.007 1.64456e-06 
549.537 1.64495e-06 
550.067 1.64535e-06 
550.598 1.64575e-06 
551.128 1.64615e-06 
551.658 1.64655e-06 
552.188 1.64696e-06 
552.719 1.64736e-06 
553.249 1.64776e-06 
553.779 1.64817e-06 
554.31 1.64857e-06 
554.84 1.64898e-06 
555.37 1.64939e-06 
555.9 1.64979e-06 
556.431 1.6502e-06 
556.961 1.65061e-06 
557.491 1.65102e-06 
558.021 1.65143e-06 
558.552 1.65184e-06 
559.082 1.65225e-06 
559.612 1.65266e-06 
560.143 1.65307e-06 
560.673 1.65348e-06 
561.203 1.6539e-06 
561.733 1.65431e-06 
562.264 1.65472e-06 
562.794 1.65514e-06 
563.324 1.65555e-06 
563.854 1.65596e-06 
564.385 1.65638e-06 
564.915 1.65679e-06 
565.445 1.65721e-06 
565.976 1.65762e-06 
566.506 1.65804e-06 
567.036 1.65845e-06 
567.566 1.65887e-06 
568.097 1.65929e-06 
568.627 1.65971e-06 
569.157 1.66012e-06 
569.688 1.66054e-06 
570.218 1.66096e-06 
570.748 1.66138e-06 
571.278 1.6618e-06 
571.809 1.66222e-06 
572.339 1.66264e-06 
572.869 1.66306e-06 
573.399 1.66348e-06 
573.93 1.66391e-06 
574.46 1.66433e-06 
574.99 1.66475e-06 
575.521 1.66518e-06 
576.051 1.6656e-06 
576.581 1.66603e-06 
577.111 1.66646e-06 
577.642 1.66688e-06 
578.172 1.66731e-06 
578.702 1.66774e-06 
579.232 1.66817e-06 
579.763 1.6686e-06 
580.293 1.66903e-06 
580.823 1.66946e-06 
581.354 1.6699e-06 
581.884 1.67033e-06 
582.414 1.67076e-06 
582.944 1.6712e-06 
583.475 1.67163e-06 
584.005 1.67207e-06 
584.535 1.67251e-06 
585.065 1.67295e-06 
585.596 1.67339e-06 
586.126 1.67383e-06 
586.656 1.67427e-06 
587.187 1.67471e-06 
587.717 1.67515e-06 
588.247 1.6756e-06 
588.777 1.67604e-06 
589.308 1.67649e-06 
589.838 1.67693e-06 
590.368 1.67738e-06 
590.898 1.67782e-06 
591.429 1.67827e-06 
591.959 1.67872e-06 
592.489 1.67917e-06 
593.02 1.67962e-06 
593.55 1.68007e-06 
594.08 1.68052e-06 
594.61 1.68097e-06 
595.141 1.68142e-06 
595.671 1.68188e-06 
596.201 1.68233e-06 
596.731 1.68278e-06 
597.262 1.68324e-06 
597.792 1.68369e-06 
598.322 1.68415e-06 
598.853 1.68461e-06 
599.383 1.68506e-06 
599.913 1.68552e-06 
600.443 1.68598e-06 
600.974 1.68643e-06 
601.504 1.68689e-06 
602.034 1.68735e-06 
602.564 1.68781e-06 
603.095 1.68827e-06 
603.625 1.68873e-06 
604.155 1.68919e-06 
604.686 1.68966e-06 
605.216 1.69012e-06 
605.746 1.69058e-06 
606.276 1.69104e-06 
606.807 1.69151e-06 
607.337 1.69197e-06 
607.867 1.69244e-06 
608.397 1.69291e-06 
608.928 1.69337e-06 
609.458 1.69384e-06 
609.988 1.69431e-06 
610.519 1.69478e-06 
611.049 1.69525e-06 
611.579 1.69572e-06 
612.109 1.69619e-06 
612.64 1.69667e-06 
613.17 1.69714e-06 
613.7 1.69762e-06 
614.23 1.69809e-06 
614.761 1.69857e-06 
615.291 1.69905e-06 
615.821 1.69953e-06 
616.352 1.70001e-06 
616.882 1.70049e-06 
617.412 1.70097e-06 
617.942 1.70145e-06 
618.473 1.70194e-06 
619.003 1.70242e-06 
619.533 1.70291e-06 
620.063 1.70339e-06 
620.594 1.70388e-06 
621.124 1.70437e-06 
621.654 1.70486e-06 
622.185 1.70535e-06 
622.715 1.70585e-06 
623.245 1.70634e-06 
623.775 1.70683e-06 
624.306 1.70733e-06 
624.836 1.70782e-06 
625.366 1.70832e-06 
625.896 1.70882e-06 
626.427 1.70932e-06 
626.957 1.70982e-06 
627.487 1.71032e-06 
628.018 1.71082e-06 
628.548 1.71132e-06 
629.078 1.71182e-06 
629.608 1.71232e-06 
630.139 1.71283e-06 
630.669 1.71333e-06 
631.199 1.71383e-06 
631.729 1.71434e-06 
632.26 1.71485e-06 
632.79 1.71535e-06 
633.32 1.71586e-06 
633.851 1.71637e-06 
634.381 1.71688e-06 
634.911 1.71739e-06 
635.441 1.7179e-06 
635.972 1.71841e-06 
636.502 1.71892e-06 
637.032 1.71943e-06 
637.562 1.71994e-06 
638.093 1.72046e-06 
638.623 1.72097e-06 
639.153 1.72149e-06 
639.684 1.722e-06 
640.214 1.72252e-06 
640.744 1.72304e-06 
641.274 1.72356e-06 
641.805 1.72408e-06 
642.335 1.7246e-06 
642.865 1.72512e-06 
643.396 1.72564e-06 
643.926 1.72616e-06 
644.456 1.72669e-06 
644.986 1.72722e-06 
645.517 1.72774e-06 
646.047 1.72827e-06 
646.577 1.7288e-06 
647.107 1.72933e-06 
647.638 1.72986e-06 
648.168 1.7304e-06 
648.698 1.73093e-06 
649.229 1.73147e-06 
649.759 1.732e-06 
650.289 1.73254e-06 
650.819 1.73308e-06 
651.35 1.73362e-06 
651.88 1.73416e-06 
652.41 1.73471e-06 
652.94 1.73525e-06 
653.471 1.7358e-06 
654.001 1.73634e-06 
654.531 1.73689e-06 
655.062 1.73744e-06 
655.592 1.73799e-06 
656.122 1.73854e-06 
656.652 1.73909e-06 
657.183 1.73965e-06 
657.713 1.7402e-06 
658.243 1.74076e-06 
658.773 1.74131e-06 
659.304 1.74187e-06 
659.834 1.74243e-06 
660.364 1.74299e-06 
660.895 1.74355e-06 
661.425 1.74411e-06 
661.955 1.74467e-06 
662.485 1.74524e-06 
663.016 1.7458e-06 
663.546 1.74637e-06 
664.076 1.74693e-06 
664.606 1.7475e-06 
665.137 1.74807e-06 
665.667 1.74864e-06 
666.197 1.74921e-06 
666.728 1.74978e-06 
667.258 1.75035e-06 
667.788 1.75093e-06 
668.318 1.7515e-06 
668.849 1.75208e-06 
669.379 1.75265e-06 
669.909 1.75323e-06 
670.439 1.75381e-06 
670.97 1.75439e-06 
671.5 1.75497e-06 
672.03 1.75555e-06 
672.561 1.75613e-06 
673.091 1.75672e-06 
673.621 1.7573e-06 
674.151 1.75789e-06 
674.682 1.75848e-06 
675.212 1.75906e-06 
675.742 1.75965e-06 
676.272 1.76024e-06 
676.803 1.76084e-06 
677.333 1.76143e-06 
677.863 1.76203e-06 
678.394 1.76262e-06 
678.924 1.76322e-06 
679.454 1.76382e-06 
679.984 1.76442e-06 
680.515 1.76502e-06 
681.045 1.76562e-06 
681.575 1.76623e-06 
682.105 1.76683e-06 
682.636 1.76744e-06 
683.166 1.76805e-06 
683.696 1.76866e-06 
684.227 1.76927e-06 
684.757 1.76988e-06 
685.287 1.7705e-06 
685.817 1.77111e-06 
686.348 1.77173e-06 
686.878 1.77235e-06 
687.408 1.77297e-06 
687.938 1.77359e-06 
688.469 1.77421e-06 
688.999 1.77484e-06 
689.529 1.77546e-06 
690.06 1.77609e-06 
690.59 1.77672e-06 
691.12 1.77735e-06 
691.65 1.77798e-06 
692.181 1.77862e-06 
692.711 1.77925e-06 
693.241 1.77989e-06 
693.771 1.78053e-06 
694.302 1.78117e-06 
694.832 1.78181e-06 
695.362 1.78245e-06 
695.893 1.78309e-06 
696.423 1.78374e-06 
696.953 1.78439e-06 
697.483 1.78503e-06 
698.014 1.78568e-06 
698.544 1.78634e-06 
699.074 1.78699e-06 
699.604 1.78764e-06 
700.135 1.7883e-06 
700.665 1.78896e-06 
701.195 1.78961e-06 
701.726 1.79027e-06 
702.256 1.79094e-06 
702.786 1.7916e-06 
703.316 1.79226e-06 
703.847 1.79293e-06 
704.377 1.79359e-06 
704.907 1.79426e-06 
705.438 1.79493e-06 
705.968 1.7956e-06 
706.498 1.79627e-06 
707.028 1.79694e-06 
707.559 1.79762e-06 
708.089 1.79829e-06 
708.619 1.79897e-06 
709.149 1.79964e-06 
709.68 1.80032e-06 
710.21 1.801e-06 
710.74 1.80169e-06 
711.271 1.80237e-06 
711.801 1.80305e-06 
712.331 1.80374e-06 
712.861 1.80443e-06 
713.392 1.80512e-06 
713.922 1.80581e-06 
714.452 1.8065e-06 
714.982 1.80719e-06 
715.513 1.80789e-06 
716.043 1.80859e-06 
716.573 1.80929e-06 
717.104 1.80999e-06 
717.634 1.81069e-06 
718.164 1.8114e-06 
718.694 1.81211e-06 
719.225 1.81282e-06 
719.755 1.81353e-06 
720.285 1.81425e-06 
720.815 1.81497e-06 
721.346 1.81569e-06 
721.876 1.81641e-06 
722.406 1.81713e-06 
722.937 1.81786e-06 
723.467 1.81859e-06 
723.997 1.81932e-06 
724.527 1.82005e-06 
725.058 1.82079e-06 
725.588 1.82153e-06 
726.118 1.82227e-06 
726.648 1.82301e-06 
727.179 1.82375e-06 
727.709 1.8245e-06 
728.239 1.82525e-06 
728.77 1.826e-06 
729.3 1.82675e-06 
729.83 1.8275e-06 
730.36 1.82826e-06 
730.891 1.82901e-06 
731.421 1.82977e-06 
731.951 1.83053e-06 
732.481 1.83129e-06 
733.012 1.83206e-06 
733.542 1.83282e-06 
734.072 1.83358e-06 
734.603 1.83435e-06 
735.133 1.83512e-06 
735.663 1.83589e-06 
736.193 1.83666e-06 
736.724 1.83743e-06 
737.254 1.83821e-06 
737.784 1.83898e-06 
738.314 1.83976e-06 
738.845 1.84054e-06 
739.375 1.84132e-06 
739.905 1.8421e-06 
740.436 1.84288e-06 
740.966 1.84367e-06 
741.496 1.84445e-06 
742.026 1.84524e-06 
742.557 1.84603e-06 
743.087 1.84682e-06 
743.617 1.84762e-06 
744.147 1.84842e-06 
744.678 1.84922e-06 
745.208 1.85002e-06 
745.738 1.85082e-06 
746.269 1.85163e-06 
746.799 1.85244e-06 
747.329 1.85325e-06 
747.859 1.85407e-06 
748.39 1.85488e-06 
748.92 1.85571e-06 
749.45 1.85653e-06 
749.98 1.85735e-06 
750.511 1.85818e-06 
751.041 1.85901e-06 
751.571 1.85985e-06 
752.102 1.86068e-06 
752.632 1.86152e-06 
753.162 1.86237e-06 
753.692 1.86321e-06 
754.223 1.86406e-06 
754.753 1.86491e-06 
755.283 1.86576e-06 
755.813 1.86662e-06 
756.344 1.86748e-06 
756.874 1.86833e-06 
757.404 1.8692e-06 
757.935 1.87006e-06 
758.465 1.87093e-06 
758.995 1.8718e-06 
759.525 1.87267e-06 
760.056 1.87354e-06 
760.586 1.87441e-06 
761.116 1.87529e-06 
761.646 1.87617e-06 
762.177 1.87705e-06 
762.707 1.87794e-06 
763.237 1.87882e-06 
763.768 1.87971e-06 
764.298 1.8806e-06 
764.828 1.88149e-06 
765.358 1.88239e-06 
765.889 1.88328e-06 
766.419 1.88418e-06 
766.949 1.88508e-06 
767.479 1.88599e-06 
768.01 1.88689e-06 
768.54 1.8878e-06 
769.07 1.88871e-06 
769.601 1.88963e-06 
770.131 1.89054e-06 
770.661 1.89146e-06 
771.191 1.89238e-06 
771.722 1.89331e-06 
772.252 1.89423e-06 
772.782 1.89516e-06 
773.312 1.8961e-06 
773.843 1.89703e-06 
774.373 1.89797e-06 
774.903 1.89891e-06 
775.434 1.89985e-06 
775.964 1.9008e-06 
776.494 1.90174e-06 
777.024 1.9027e-06 
777.555 1.90365e-06 
778.085 1.90461e-06 
778.615 1.90557e-06 
779.146 1.90653e-06 
779.676 1.9075e-06 
780.206 1.90847e-06 
780.736 1.90944e-06 
781.267 1.91041e-06 
781.797 1.91139e-06 
782.327 1.91237e-06 
782.857 1.91335e-06 
783.388 1.91434e-06 
783.918 1.91533e-06 
784.448 1.91633e-06 
784.979 1.91733e-06 
785.509 1.91833e-06 
786.039 1.91933e-06 
786.569 1.92034e-06 
787.1 1.92135e-06 
787.63 1.92237e-06 
788.16 1.92339e-06 
788.69 1.92441e-06 
789.221 1.92544e-06 
789.751 1.92647e-06 
790.281 1.9275e-06 
790.812 1.92853e-06 
791.342 1.92957e-06 
791.872 1.93062e-06 
792.402 1.93167e-06 
792.933 1.93272e-06 
793.463 1.93377e-06 
793.993 1.93482e-06 
794.523 1.93588e-06 
795.054 1.93695e-06 
795.584 1.93801e-06 
796.114 1.93908e-06 
796.645 1.94015e-06 
797.175 1.94122e-06 
797.705 1.9423e-06 
798.235 1.94338e-06 
798.766 1.94446e-06 
799.296 1.94554e-06 
799.826 1.94663e-06 
800.356 1.94771e-06 
800.887 1.94881e-06 
801.417 1.9499e-06 
801.947 1.951e-06 
802.478 1.9521e-06 
803.008 1.9532e-06 
803.538 1.9543e-06 
804.068 1.95541e-06 
804.599 1.95652e-06 
805.129 1.95764e-06 
805.659 1.95876e-06 
806.189 1.95988e-06 
806.72 1.96101e-06 
807.25 1.96214e-06 
807.78 1.96327e-06 
808.311 1.96441e-06 
808.841 1.96555e-06 
809.371 1.9667e-06 
809.901 1.96785e-06 
810.432 1.969e-06 
810.962 1.97016e-06 
811.492 1.97132e-06 
812.022 1.97249e-06 
812.553 1.97366e-06 
813.083 1.97484e-06 
813.613 1.97602e-06 
814.144 1.9772e-06 
814.674 1.97839e-06 
815.204 1.97958e-06 
815.734 1.98077e-06 
816.265 1.98197e-06 
816.795 1.98317e-06 
817.325 1.98438e-06 
817.855 1.98559e-06 
818.386 1.9868e-06 
818.916 1.98801e-06 
819.446 1.98923e-06 
819.977 1.99045e-06 
820.507 1.99168e-06 
821.037 1.99291e-06 
821.567 1.99414e-06 
822.098 1.99537e-06 
822.628 1.99661e-06 
823.158 1.99785e-06 
823.688 1.9991e-06 
824.219 2.00035e-06 
824.749 2.0016e-06 
825.279 2.00286e-06 
825.81 2.00412e-06 
826.34 2.00539e-06 
826.87 2.00666e-06 
827.4 2.00794e-06 
827.931 2.00922e-06 
828.461 2.0105e-06 
828.991 2.01179e-06 
829.521 2.01309e-06 
830.052 2.01439e-06 
830.582 2.0157e-06 
831.112 2.01701e-06 
831.643 2.01832e-06 
832.173 2.01964e-06 
832.703 2.02097e-06 
833.233 2.02229e-06 
833.764 2.02363e-06 
834.294 2.02497e-06 
834.824 2.02631e-06 
835.354 2.02765e-06 
835.885 2.02901e-06 
836.415 2.03036e-06 
836.945 2.03172e-06 
837.476 2.03308e-06 
838.006 2.03445e-06 
838.536 2.03582e-06 
839.066 2.03719e-06 
839.597 2.03857e-06 
840.127 2.03995e-06 
840.657 2.04133e-06 
841.188 2.04272e-06 
841.718 2.04412e-06 
842.248 2.04551e-06 
842.778 2.04691e-06 
843.309 2.04832e-06 
843.839 2.04973e-06 
844.369 2.05114e-06 
844.899 2.05256e-06 
845.43 2.05398e-06 
845.96 2.05541e-06 
846.49 2.05685e-06 
847.021 2.05828e-06 
847.551 2.05973e-06 
848.081 2.06118e-06 
848.611 2.06263e-06 
849.142 2.06409e-06 
849.672 2.06555e-06 
850.202 2.06702e-06 
850.732 2.06849e-06 
851.263 2.06996e-06 
851.793 2.07145e-06 
852.323 2.07293e-06 
852.854 2.07442e-06 
853.384 2.07592e-06 
853.914 2.07742e-06 
854.444 2.07892e-06 
854.975 2.08043e-06 
855.505 2.08194e-06 
856.035 2.08346e-06 
856.565 2.08498e-06 
857.096 2.0865e-06 
857.626 2.08803e-06 
858.156 2.08957e-06 
858.687 2.09111e-06 
859.217 2.09265e-06 
859.747 2.0942e-06 
860.277 2.09575e-06 
860.808 2.09731e-06 
861.338 2.09887e-06 
861.868 2.10044e-06 
862.398 2.10201e-06 
862.929 2.10358e-06 
863.459 2.10516e-06 
863.989 2.10675e-06 
864.52 2.10834e-06 
865.05 2.10993e-06 
865.58 2.11152e-06 
866.11 2.11312e-06 
866.641 2.11473e-06 
867.171 2.11633e-06 
867.701 2.11794e-06 
868.231 2.11956e-06 
868.762 2.12117e-06 
869.292 2.12279e-06 
869.822 2.12441e-06 
870.353 2.12604e-06 
870.883 2.12767e-06 
871.413 2.12931e-06 
871.943 2.13095e-06 
872.474 2.13259e-06 
873.004 2.13424e-06 
873.534 2.1359e-06 
874.064 2.13756e-06 
874.595 2.13924e-06 
875.125 2.14091e-06 
875.655 2.1426e-06 
876.186 2.1443e-06 
876.716 2.14601e-06 
877.246 2.14772e-06 
877.776 2.14945e-06 
878.307 2.15118e-06 
878.837 2.15293e-06 
879.367 2.15469e-06 
879.897 2.15645e-06 
880.428 2.15823e-06 
880.958 2.16001e-06 
881.488 2.16181e-06 
882.019 2.16361e-06 
882.549 2.16543e-06 
883.079 2.16725e-06 
883.609 2.16908e-06 
884.14 2.17092e-06 
884.67 2.17277e-06 
885.2 2.17463e-06 
885.73 2.1765e-06 
886.261 2.17838e-06 
886.791 2.18026e-06 
887.321 2.18216e-06 
887.852 2.18407e-06 
888.382 2.18599e-06 
888.912 2.18791e-06 
889.442 2.18986e-06 
889.973 2.19181e-06 
890.503 2.19377e-06 
891.033 2.19575e-06 
891.563 2.19774e-06 
892.094 2.19974e-06 
892.624 2.20176e-06 
893.154 2.20378e-06 
893.685 2.20581e-06 
894.215 2.20786e-06 
894.745 2.20991e-06 
895.275 2.21197e-06 
895.806 2.21404e-06 
896.336 2.21612e-06 
896.866 2.2182e-06 
897.396 2.22029e-06 
897.927 2.22239e-06 
898.457 2.22449e-06 
898.987 2.2266e-06 
899.518 2.22872e-06 
900.048 2.23084e-06 
900.578 2.23298e-06 
901.108 2.23512e-06 
901.639 2.23727e-06 
902.169 2.23942e-06 
902.699 2.24159e-06 
903.229 2.24376e-06 
903.76 2.24594e-06 
904.29 2.24813e-06 
904.82 2.25032e-06 
905.351 2.25252e-06 
905.881 2.25472e-06 
906.411 2.25693e-06 
906.941 2.25914e-06 
907.472 2.26134e-06 
908.002 2.26355e-06 
908.532 2.26575e-06 
909.062 2.26795e-06 
