#energy geo_1 
400 4.54271e-06 
400.53 4.54528e-06 
401.061 4.54782e-06 
401.591 4.55034e-06 
402.121 4.55287e-06 
402.651 4.55543e-06 
403.182 4.55803e-06 
403.712 4.56069e-06 
404.242 4.56336e-06 
404.772 4.56602e-06 
405.303 4.56858e-06 
405.833 4.57096e-06 
406.363 4.57305e-06 
406.894 4.57477e-06 
407.424 4.57603e-06 
407.954 4.57685e-06 
408.484 4.5773e-06 
409.015 4.57751e-06 
409.545 4.57764e-06 
410.075 4.5779e-06 
410.605 4.57851e-06 
411.136 4.57962e-06 
411.666 4.58137e-06 
412.196 4.58375e-06 
412.727 4.58671e-06 
413.257 4.5902e-06 
413.787 4.59409e-06 
414.317 4.59823e-06 
414.848 4.6025e-06 
415.378 4.60679e-06 
415.908 4.61102e-06 
416.438 4.61517e-06 
416.969 4.61925e-06 
417.499 4.62332e-06 
418.029 4.62741e-06 
418.56 4.63156e-06 
419.09 4.63579e-06 
419.62 4.64009e-06 
420.15 4.6444e-06 
420.681 4.64871e-06 
421.211 4.65297e-06 
421.741 4.65719e-06 
422.271 4.66139e-06 
422.802 4.66559e-06 
423.332 4.66983e-06 
423.862 4.67413e-06 
424.393 4.67845e-06 
424.923 4.68276e-06 
425.453 4.68697e-06 
425.983 4.69105e-06 
426.514 4.69495e-06 
427.044 4.69867e-06 
427.574 4.70224e-06 
428.104 4.70574e-06 
428.635 4.70924e-06 
429.165 4.71284e-06 
429.695 4.7166e-06 
430.226 4.72063e-06 
430.756 4.72503e-06 
431.286 4.72994e-06 
431.816 4.73541e-06 
432.347 4.74147e-06 
432.877 4.74811e-06 
433.407 4.75527e-06 
433.938 4.76277e-06 
434.468 4.7705e-06 
434.998 4.77834e-06 
435.528 4.78625e-06 
436.059 4.79419e-06 
436.589 4.80216e-06 
437.119 4.81008e-06 
437.649 4.81788e-06 
438.18 4.82548e-06 
438.71 4.83289e-06 
439.24 4.84019e-06 
439.771 4.84751e-06 
440.301 4.85493e-06 
440.831 4.86244e-06 
441.361 4.86988e-06 
441.892 4.87709e-06 
442.422 4.88397e-06 
442.952 4.89049e-06 
443.482 4.89679e-06 
444.013 4.90297e-06 
444.543 4.90909e-06 
445.073 4.91512e-06 
445.604 4.92103e-06 
446.134 4.92677e-06 
446.664 4.93224e-06 
447.194 4.93729e-06 
447.725 4.94174e-06 
448.255 4.94552e-06 
448.785 4.94862e-06 
449.315 4.95118e-06 
449.846 4.95329e-06 
450.376 4.95496e-06 
450.906 4.95613e-06 
451.437 4.95679e-06 
451.967 4.95688e-06 
452.497 4.9564e-06 
453.027 4.95557e-06 
453.558 4.95497e-06 
454.088 4.95519e-06 
454.618 4.95661e-06 
455.148 4.95907e-06 
455.679 4.96217e-06 
456.209 4.9654e-06 
456.739 4.96801e-06 
457.27 4.96903e-06 
457.8 4.96775e-06 
458.33 4.96392e-06 
458.86 4.95789e-06 
459.391 4.95025e-06 
459.921 4.94157e-06 
460.451 4.93247e-06 
460.981 4.92369e-06 
461.512 4.9157e-06 
462.042 4.90877e-06 
462.572 4.90321e-06 
463.103 4.89949e-06 
463.633 4.89799e-06 
464.163 4.8991e-06 
464.693 4.9032e-06 
465.224 4.91007e-06 
465.754 4.91913e-06 
466.284 4.92935e-06 
466.814 4.93848e-06 
467.345 4.94286e-06 
467.875 4.94038e-06 
468.405 4.93184e-06 
468.936 4.92108e-06 
469.466 4.9114e-06 
469.996 4.90456e-06 
470.526 4.90115e-06 
471.057 4.9015e-06 
471.587 4.90746e-06 
472.117 4.92383e-06 
472.647 4.95913e-06 
473.178 5.02201e-06 
473.708 5.12122e-06 
474.238 5.27004e-06 
474.769 5.49673e-06 
475.299 5.86511e-06 
475.829 6.51492e-06 
476.359 7.78249e-06 
476.89 1.05793e-05 
477.42 1.71711e-05 
477.95 2.49947e-05 
478.48 1.86238e-05 
479.011 1.14796e-05 
479.541 8.14894e-06 
480.071 6.65794e-06 
480.602 5.90494e-06 
481.132 5.48009e-06 
481.662 5.21944e-06 
482.192 5.04915e-06 
482.723 4.93243e-06 
483.253 4.84941e-06 
483.783 4.7886e-06 
484.313 4.74302e-06 
484.844 4.70824e-06 
485.374 4.6813e-06 
485.904 4.66021e-06 
486.435 4.64357e-06 
486.965 4.63038e-06 
487.495 4.61991e-06 
488.025 4.61159e-06 
488.556 4.60501e-06 
489.086 4.59986e-06 
489.616 4.59589e-06 
490.146 4.59288e-06 
490.677 4.59069e-06 
491.207 4.58918e-06 
491.737 4.58826e-06 
492.268 4.58783e-06 
492.798 4.58782e-06 
493.328 4.58819e-06 
493.858 4.58887e-06 
494.389 4.58984e-06 
494.919 4.59106e-06 
495.449 4.59251e-06 
495.979 4.59417e-06 
496.51 4.59602e-06 
497.04 4.59806e-06 
497.57 4.60027e-06 
498.101 4.60264e-06 
498.631 4.60517e-06 
499.161 4.60786e-06 
499.691 4.61068e-06 
500.222 4.61364e-06 
500.752 4.61673e-06 
501.282 4.61993e-06 
501.812 4.62322e-06 
502.343 4.62661e-06 
502.873 4.63008e-06 
503.403 4.6336e-06 
503.934 4.63717e-06 
504.464 4.64078e-06 
504.994 4.64442e-06 
505.524 4.64806e-06 
506.055 4.65173e-06 
506.585 4.65539e-06 
507.115 4.65906e-06 
507.646 4.66274e-06 
508.176 4.66644e-06 
508.706 4.67017e-06 
509.236 4.67393e-06 
509.767 4.67773e-06 
510.297 4.6816e-06 
510.827 4.68554e-06 
511.357 4.68955e-06 
511.888 4.69366e-06 
512.418 4.69785e-06 
512.948 4.70215e-06 
513.479 4.70652e-06 
514.009 4.71098e-06 
514.539 4.71551e-06 
515.069 4.72009e-06 
515.6 4.72472e-06 
516.13 4.72937e-06 
516.66 4.73404e-06 
517.19 4.73868e-06 
517.721 4.74324e-06 
518.251 4.74773e-06 
518.781 4.75214e-06 
519.312 4.75649e-06 
519.842 4.76079e-06 
520.372 4.76505e-06 
520.902 4.76927e-06 
521.433 4.77347e-06 
521.963 4.77766e-06 
522.493 4.78185e-06 
523.023 4.78604e-06 
523.554 4.79025e-06 
524.084 4.79449e-06 
524.614 4.79877e-06 
525.145 4.80311e-06 
525.675 4.80754e-06 
526.205 4.81208e-06 
526.735 4.81676e-06 
527.266 4.82161e-06 
527.796 4.82664e-06 
528.326 4.83188e-06 
528.856 4.83732e-06 
529.387 4.84295e-06 
529.917 4.84876e-06 
530.447 4.85471e-06 
530.978 4.86074e-06 
531.508 4.8668e-06 
532.038 4.87284e-06 
532.568 4.8788e-06 
533.099 4.88462e-06 
533.629 4.89028e-06 
534.159 4.89573e-06 
534.689 4.90089e-06 
535.22 4.90573e-06 
535.75 4.91026e-06 
536.28 4.91452e-06 
536.811 4.91856e-06 
537.341 4.92243e-06 
537.871 4.92616e-06 
538.401 4.92979e-06 
538.932 4.93336e-06 
539.462 4.93691e-06 
539.992 4.9405e-06 
540.522 4.94414e-06 
541.053 4.94788e-06 
541.583 4.95175e-06 
542.113 4.95576e-06 
542.644 4.95986e-06 
543.174 4.96398e-06 
543.704 4.96803e-06 
544.234 4.97187e-06 
544.765 4.97534e-06 
545.295 4.97829e-06 
545.825 4.9806e-06 
546.355 4.98221e-06 
546.886 4.9832e-06 
547.416 4.98373e-06 
547.946 4.98403e-06 
548.477 4.9844e-06 
549.007 4.98513e-06 
549.537 4.98652e-06 
550.067 4.98877e-06 
550.598 4.99196e-06 
551.128 4.99605e-06 
551.658 5.00094e-06 
552.188 5.00649e-06 
552.719 5.01247e-06 
553.249 5.01869e-06 
553.779 5.02493e-06 
554.31 5.03103e-06 
554.84 5.03692e-06 
555.37 5.04255e-06 
555.9 5.04798e-06 
556.431 5.05328e-06 
556.961 5.05856e-06 
557.491 5.06387e-06 
558.021 5.0693e-06 
558.552 5.07486e-06 
559.082 5.08052e-06 
559.612 5.08626e-06 
560.143 5.09195e-06 
560.673 5.09749e-06 
561.203 5.1027e-06 
561.733 5.10732e-06 
562.264 5.11111e-06 
562.794 5.11373e-06 
563.324 5.11491e-06 
563.854 5.11456e-06 
564.385 5.11283e-06 
564.915 5.11002e-06 
565.445 5.10666e-06 
565.976 5.10344e-06 
566.506 5.10108e-06 
567.036 5.10024e-06 
567.566 5.10143e-06 
568.097 5.1048e-06 
568.627 5.11036e-06 
569.157 5.11807e-06 
569.688 5.12775e-06 
570.218 5.13911e-06 
570.748 5.15179e-06 
571.278 5.16548e-06 
571.809 5.17987e-06 
572.339 5.19467e-06 
572.869 5.20971e-06 
573.399 5.22493e-06 
573.93 5.24036e-06 
574.46 5.25605e-06 
574.99 5.27202e-06 
575.521 5.28813e-06 
576.051 5.30414e-06 
576.581 5.31982e-06 
577.111 5.33503e-06 
577.642 5.34982e-06 
578.172 5.36449e-06 
578.702 5.37925e-06 
579.232 5.39429e-06 
579.763 5.40942e-06 
580.293 5.42432e-06 
580.823 5.43862e-06 
581.354 5.45203e-06 
581.884 5.4645e-06 
582.414 5.47613e-06 
582.944 5.48702e-06 
583.475 5.4973e-06 
584.005 5.50712e-06 
584.535 5.51668e-06 
585.065 5.52612e-06 
585.596 5.53548e-06 
586.126 5.54478e-06 
586.656 5.5542e-06 
587.187 5.56405e-06 
587.717 5.5747e-06 
588.247 5.58643e-06 
588.777 5.59929e-06 
589.308 5.61295e-06 
589.838 5.62689e-06 
590.368 5.64065e-06 
590.898 5.65387e-06 
591.429 5.66655e-06 
591.959 5.67936e-06 
592.489 5.6932e-06 
593.02 5.70863e-06 
593.55 5.72545e-06 
594.08 5.74294e-06 
594.61 5.7603e-06 
595.141 5.77678e-06 
595.671 5.79127e-06 
596.201 5.80266e-06 
596.731 5.81019e-06 
597.262 5.81369e-06 
597.792 5.8134e-06 
598.322 5.80993e-06 
598.853 5.80427e-06 
599.383 5.79792e-06 
599.913 5.79216e-06 
600.443 5.78768e-06 
600.974 5.7849e-06 
601.504 5.7844e-06 
602.034 5.78669e-06 
602.564 5.7921e-06 
603.095 5.8008e-06 
603.625 5.81232e-06 
604.155 5.82562e-06 
604.686 5.83943e-06 
605.216 5.85134e-06 
605.746 5.85634e-06 
606.276 5.84993e-06 
606.807 5.8313e-06 
607.337 5.80505e-06 
607.867 5.77694e-06 
608.397 5.75068e-06 
608.928 5.72853e-06 
609.458 5.71277e-06 
609.988 5.70709e-06 
610.519 5.71824e-06 
611.049 5.75751e-06 
611.579 5.83758e-06 
612.109 5.97034e-06 
612.64 6.17094e-06 
613.17 6.47053e-06 
613.7 6.94405e-06 
614.23 7.75984e-06 
614.761 9.31163e-06 
615.291 1.26308e-05 
615.821 2.04877e-05 
616.352 3.40383e-05 
616.882 3.17031e-05 
617.412 1.9695e-05 
617.942 1.22155e-05 
618.473 8.89691e-06 
619.003 7.305e-06 
619.533 6.44338e-06 
620.063 5.93359e-06 
620.594 5.61481e-06 
621.124 5.40916e-06 
621.654 5.27456e-06 
622.185 5.185e-06 
622.715 5.11973e-06 
623.245 5.05945e-06 
623.775 4.99223e-06 
624.306 4.91703e-06 
624.836 4.84269e-06 
625.366 4.77761e-06 
625.896 4.72609e-06 
626.427 4.6891e-06 
626.957 4.66734e-06 
627.487 4.66633e-06 
628.018 4.70108e-06 
628.548 4.79748e-06 
629.078 4.98258e-06 
629.608 5.28465e-06 
630.139 5.74738e-06 
630.669 6.46384e-06 
631.199 7.64191e-06 
631.729 9.74149e-06 
632.26 1.38795e-05 
632.79 2.30981e-05 
633.32 4.44152e-05 
633.851 6.53101e-05 
634.381 4.79599e-05 
634.911 2.61405e-05 
635.441 1.50701e-05 
635.972 1.01361e-05 
636.502 7.66568e-06 
637.032 6.27794e-06 
637.562 5.42668e-06 
638.093 4.86873e-06 
638.623 4.48395e-06 
639.153 4.20771e-06 
639.684 4.00286e-06 
640.214 3.84684e-06 
640.744 3.72535e-06 
641.274 3.62894e-06 
641.805 3.55118e-06 
642.335 3.48761e-06 
642.865 3.435e-06 
643.396 3.39103e-06 
643.926 3.35396e-06 
644.456 3.32249e-06 
644.986 3.29562e-06 
645.517 3.27257e-06 
646.047 3.25272e-06 
646.577 3.23557e-06 
647.107 3.22071e-06 
647.638 3.20779e-06 
648.168 3.19654e-06 
648.698 3.18674e-06 
649.229 3.1782e-06 
649.759 3.17078e-06 
650.289 3.16437e-06 
650.819 3.15889e-06 
651.35 3.15425e-06 
651.88 3.15043e-06 
652.41 3.14738e-06 
652.94 3.14508e-06 
653.471 3.1435e-06 
654.001 3.14262e-06 
654.531 3.14241e-06 
655.062 3.14285e-06 
655.592 3.14391e-06 
656.122 3.14555e-06 
656.652 3.14778e-06 
657.183 3.15058e-06 
657.713 3.15404e-06 
658.243 3.15825e-06 
658.773 3.16341e-06 
659.304 3.16977e-06 
659.834 3.17766e-06 
660.364 3.1875e-06 
660.895 3.19982e-06 
661.425 3.21528e-06 
661.955 3.23471e-06 
662.485 3.25915e-06 
663.016 3.28988e-06 
663.546 3.32846e-06 
664.076 3.37671e-06 
664.606 3.43657e-06 
665.137 3.50965e-06 
665.667 3.59609e-06 
666.197 3.69262e-06 
666.728 3.78993e-06 
667.258 3.87137e-06 
667.788 3.91687e-06 
668.318 3.91287e-06 
668.849 3.86131e-06 
669.379 3.77812e-06 
669.909 3.68312e-06 
670.439 3.59138e-06 
670.97 3.51075e-06 
671.5 3.44364e-06 
672.03 3.3895e-06 
672.561 3.34658e-06 
673.091 3.31294e-06 
673.621 3.2868e-06 
674.151 3.26668e-06 
674.682 3.25143e-06 
675.212 3.24016e-06 
675.742 3.23226e-06 
676.272 3.22725e-06 
676.803 3.22487e-06 
677.333 3.22494e-06 
677.863 3.22746e-06 
678.394 3.23252e-06 
678.924 3.24034e-06 
679.454 3.2513e-06 
679.984 3.26592e-06 
680.515 3.28488e-06 
681.045 3.30902e-06 
681.575 3.33926e-06 
682.105 3.37636e-06 
682.636 3.42042e-06 
683.166 3.46985e-06 
683.696 3.52003e-06 
684.227 3.56264e-06 
684.757 3.58735e-06 
685.287 3.58688e-06 
685.817 3.56171e-06 
686.348 3.51968e-06 
686.878 3.47099e-06 
687.408 3.42357e-06 
687.938 3.38171e-06 
688.469 3.3468e-06 
688.999 3.31864e-06 
689.529 3.29637e-06 
690.06 3.27897e-06 
690.59 3.26549e-06 
691.12 3.25509e-06 
691.65 3.2471e-06 
692.181 3.24095e-06 
692.711 3.23622e-06 
693.241 3.23259e-06 
693.771 3.22986e-06 
694.302 3.22787e-06 
694.832 3.22659e-06 
695.362 3.22599e-06 
695.893 3.2261e-06 
696.423 3.22697e-06 
696.953 3.22867e-06 
697.483 3.23127e-06 
698.014 3.23483e-06 
698.544 3.23942e-06 
699.074 3.24508e-06 
699.604 3.25183e-06 
700.135 3.25969e-06 
700.665 3.26865e-06 
701.195 3.27871e-06 
701.726 3.28992e-06 
702.256 3.3024e-06 
702.786 3.31642e-06 
703.316 3.33246e-06 
703.847 3.35116e-06 
704.377 3.37343e-06 
704.907 3.40037e-06 
705.438 3.4334e-06 
705.968 3.47423e-06 
706.498 3.52502e-06 
707.028 3.58848e-06 
707.559 3.66797e-06 
708.089 3.76766e-06 
708.619 3.8926e-06 
709.149 4.04864e-06 
709.68 4.24192e-06 
710.21 4.4771e-06 
710.74 4.75353e-06 
711.271 5.05852e-06 
711.801 5.35898e-06 
712.331 5.59917e-06 
712.861 5.71594e-06 
713.392 5.67197e-06 
713.922 5.4807e-06 
714.452 5.19658e-06 
714.982 4.88197e-06 
715.513 4.58193e-06 
716.043 4.31886e-06 
716.573 4.09883e-06 
717.104 3.91938e-06 
717.634 3.77482e-06 
718.164 3.65901e-06 
718.694 3.56644e-06 
719.225 3.49263e-06 
719.755 3.43406e-06 
720.285 3.38812e-06 
720.815 3.35291e-06 
721.346 3.32715e-06 
721.876 3.31005e-06 
722.406 3.30122e-06 
722.937 3.30066e-06 
723.467 3.30874e-06 
723.997 3.32624e-06 
724.527 3.35439e-06 
725.058 3.39491e-06 
725.588 3.4501e-06 
726.118 3.52277e-06 
726.648 3.61602e-06 
727.179 3.73243e-06 
727.709 3.87221e-06 
728.239 4.02999e-06 
728.77 4.19069e-06 
729.3 4.32816e-06 
729.83 4.41214e-06 
730.36 4.42437e-06 
730.891 4.37158e-06 
731.421 4.28192e-06 
731.951 4.18882e-06 
732.481 4.11795e-06 
733.012 4.08344e-06 
733.542 4.0895e-06 
734.072 4.13178e-06 
734.603 4.19641e-06 
735.133 4.25872e-06 
735.663 4.28734e-06 
736.193 4.25698e-06 
736.724 4.16283e-06 
737.254 4.0224e-06 
737.784 3.86295e-06 
738.314 3.70751e-06 
738.845 3.56908e-06 
739.375 3.45214e-06 
739.905 3.35622e-06 
740.436 3.27876e-06 
740.966 3.21666e-06 
741.496 3.16707e-06 
742.026 3.12758e-06 
742.557 3.09628e-06 
743.087 3.0717e-06 
743.617 3.05272e-06 
744.147 3.03856e-06 
744.678 3.02867e-06 
745.208 3.02272e-06 
745.738 3.02055e-06 
746.269 3.02222e-06 
746.799 3.02796e-06 
747.329 3.0382e-06 
747.859 3.05358e-06 
748.39 3.07499e-06 
748.92 3.10351e-06 
749.45 3.14038e-06 
749.98 3.18676e-06 
750.511 3.24304e-06 
751.041 3.30769e-06 
751.571 3.37541e-06 
752.102 3.43578e-06 
752.632 3.4747e-06 
753.162 3.48037e-06 
753.692 3.45063e-06 
754.223 3.39433e-06 
754.753 3.32546e-06 
755.283 3.25615e-06 
755.813 3.1935e-06 
756.344 3.14027e-06 
756.874 3.09657e-06 
757.404 3.06133e-06 
757.935 3.03316e-06 
758.465 3.01067e-06 
758.995 2.99266e-06 
759.525 2.97812e-06 
760.056 2.96622e-06 
760.586 2.95633e-06 
761.116 2.94799e-06 
761.646 2.94089e-06 
762.177 2.93484e-06 
762.707 2.92979e-06 
763.237 2.92575e-06 
763.768 2.92279e-06 
764.298 2.92102e-06 
764.828 2.92058e-06 
765.358 2.9216e-06 
765.889 2.92423e-06 
766.419 2.92857e-06 
766.949 2.93473e-06 
767.479 2.94279e-06 
768.01 2.95277e-06 
768.54 2.9647e-06 
769.07 2.97861e-06 
769.601 2.99455e-06 
770.131 3.01276e-06 
770.661 3.03367e-06 
771.191 3.05802e-06 
771.722 3.08693e-06 
772.252 3.12188e-06 
772.782 3.16477e-06 
773.312 3.21793e-06 
773.843 3.28429e-06 
774.373 3.36747e-06 
774.903 3.47203e-06 
775.434 3.60365e-06 
775.964 3.76935e-06 
776.494 3.9777e-06 
777.024 4.23873e-06 
777.555 4.56312e-06 
778.085 4.9596e-06 
778.615 5.42892e-06 
779.146 5.95283e-06 
779.676 6.47988e-06 
780.206 6.91879e-06 
780.736 7.15937e-06 
781.267 7.12637e-06 
781.797 6.82795e-06 
782.327 6.34974e-06 
782.857 5.80129e-06 
783.388 5.26756e-06 
783.918 4.79392e-06 
784.448 4.39488e-06 
784.979 4.06795e-06 
785.509 3.80375e-06 
786.039 3.59144e-06 
786.569 3.4211e-06 
787.1 3.28448e-06 
787.63 3.1751e-06 
788.16 3.08805e-06 
788.69 3.01978e-06 
789.221 2.96783e-06 
789.751 2.93063e-06 
790.281 2.9074e-06 
790.812 2.89805e-06 
791.342 2.90317e-06 
791.872 2.92407e-06 
792.402 2.96285e-06 
792.933 3.02242e-06 
793.463 3.10664e-06 
793.993 3.22019e-06 
794.523 3.3682e-06 
795.054 3.55495e-06 
795.584 3.78092e-06 
796.114 4.03726e-06 
796.645 4.29854e-06 
797.175 4.51888e-06 
797.705 4.64167e-06 
798.235 4.62628e-06 
798.766 4.47402e-06 
799.296 4.22688e-06 
799.826 3.941e-06 
800.356 3.66099e-06 
800.887 3.4112e-06 
801.417 3.19978e-06 
801.947 3.02578e-06 
802.478 2.88447e-06 
803.008 2.77027e-06 
803.538 2.678e-06 
804.068 2.60328e-06 
804.599 2.54257e-06 
805.129 2.49308e-06 
805.659 2.45259e-06 
806.189 2.41938e-06 
806.72 2.39208e-06 
807.25 2.36962e-06 
807.78 2.35113e-06 
808.311 2.33592e-06 
808.841 2.32343e-06 
809.371 2.31322e-06 
809.901 2.30492e-06 
810.432 2.29823e-06 
810.962 2.29292e-06 
811.492 2.28876e-06 
812.022 2.28557e-06 
812.553 2.28319e-06 
813.083 2.28148e-06 
813.613 2.2803e-06 
814.144 2.27958e-06 
814.674 2.27921e-06 
815.204 2.27916e-06 
815.734 2.27936e-06 
816.265 2.27977e-06 
816.795 2.28034e-06 
817.325 2.28104e-06 
817.855 2.28182e-06 
818.386 2.28265e-06 
818.916 2.28351e-06 
819.446 2.28438e-06 
819.977 2.28525e-06 
820.507 2.28613e-06 
821.037 2.28701e-06 
821.567 2.28789e-06 
822.098 2.28879e-06 
822.628 2.28971e-06 
823.158 2.2907e-06 
823.688 2.29181e-06 
824.219 2.29307e-06 
824.749 2.29454e-06 
825.279 2.29623e-06 
825.81 2.29811e-06 
826.34 2.30011e-06 
826.87 2.30211e-06 
827.4 2.30394e-06 
827.931 2.30547e-06 
828.461 2.30657e-06 
828.991 2.30719e-06 
829.521 2.30735e-06 
830.052 2.30719e-06 
830.582 2.30691e-06 
831.112 2.30677e-06 
831.643 2.3071e-06 
832.173 2.30824e-06 
832.703 2.31053e-06 
833.233 2.31429e-06 
833.764 2.31981e-06 
834.294 2.32738e-06 
834.824 2.33721e-06 
835.354 2.34946e-06 
835.885 2.36423e-06 
836.415 2.38158e-06 
836.945 2.40155e-06 
837.476 2.42423e-06 
838.006 2.44988e-06 
838.536 2.47905e-06 
839.066 2.51274e-06 
839.597 2.55244e-06 
840.127 2.6002e-06 
840.657 2.65867e-06 
841.188 2.73111e-06 
841.718 2.82159e-06 
842.248 2.93515e-06 
842.778 3.07811e-06 
843.309 3.25833e-06 
843.839 3.4856e-06 
844.369 3.77183e-06 
844.899 4.13115e-06 
845.43 4.57904e-06 
845.96 5.12933e-06 
846.49 5.78686e-06 
847.021 6.53322e-06 
847.551 7.30668e-06 
848.081 7.98777e-06 
848.611 8.41808e-06 
849.142 8.46881e-06 
849.672 8.12004e-06 
850.202 7.47408e-06 
850.732 6.68913e-06 
851.263 5.90083e-06 
851.793 5.18851e-06 
852.323 4.58218e-06 
852.854 4.08258e-06 
853.384 3.6776e-06 
853.914 3.35162e-06 
854.444 3.08984e-06 
854.975 2.87972e-06 
855.505 2.71133e-06 
856.035 2.57713e-06 
856.565 2.47164e-06 
857.096 2.39109e-06 
857.626 2.33314e-06 
858.156 2.29663e-06 
858.687 2.28151e-06 
859.217 2.28879e-06 
859.747 2.32063e-06 
860.277 2.3804e-06 
860.808 2.47281e-06 
861.338 2.60406e-06 
861.868 2.78178e-06 
862.398 3.01458e-06 
862.929 3.31037e-06 
863.459 3.6722e-06 
863.989 4.09022e-06 
864.52 4.52986e-06 
865.05 4.92271e-06 
865.58 5.17558e-06 
866.11 5.20913e-06 
866.641 5.00573e-06 
867.171 4.62127e-06 
867.701 4.14831e-06 
868.231 3.66881e-06 
868.762 3.23189e-06 
869.292 2.85681e-06 
869.822 2.54477e-06 
870.353 2.28885e-06 
870.883 2.0798e-06 
871.413 1.90872e-06 
871.943 1.76803e-06 
872.474 1.65153e-06 
873.004 1.55436e-06 
873.534 1.47271e-06 
874.064 1.40359e-06 
874.595 1.34469e-06 
875.125 1.29418e-06 
875.655 1.25062e-06 
876.186 1.21286e-06 
876.716 1.17998e-06 
877.246 1.15123e-06 
877.776 1.12602e-06 
878.307 1.10387e-06 
878.837 1.0844e-06 
879.367 1.06735e-06 
879.897 1.05251e-06 
880.428 1.03976e-06 
880.958 1.02905e-06 
881.488 1.02039e-06 
882.019 1.01385e-06 
882.549 1.0096e-06 
883.079 1.00788e-06 
883.609 1.00906e-06 
884.14 1.01359e-06 
884.67 1.02208e-06 
885.2 1.03523e-06 
885.73 1.05377e-06 
886.261 1.0782e-06 
886.791 1.10825e-06 
887.321 1.14206e-06 
887.852 1.17506e-06 
888.382 1.19998e-06 
888.912 1.20895e-06 
889.442 1.19775e-06 
889.973 1.16859e-06 
890.503 1.12854e-06 
891.033 1.08538e-06 
891.563 1.04455e-06 
892.094 1.00869e-06 
892.624 9.78413e-07 
893.154 9.53337e-07 
893.685 9.32708e-07 
894.215 9.15727e-07 
894.745 9.01688e-07 
895.275 8.90007e-07 
895.806 8.80212e-07 
896.336 8.71937e-07 
896.866 8.64891e-07 
897.396 8.58843e-07 
897.927 8.53612e-07 
898.457 8.49053e-07 
898.987 8.4505e-07 
899.518 8.4151e-07 
900.048 8.38357e-07 
900.578 8.35527e-07 
901.108 8.32968e-07 
901.639 8.30634e-07 
902.169 8.28484e-07 
902.699 8.26484e-07 
903.229 8.24604e-07 
903.76 8.2282e-07 
904.29 8.21111e-07 
904.82 8.19464e-07 
905.351 8.17868e-07 
905.881 8.16316e-07 
906.411 8.14806e-07 
906.941 8.13336e-07 
907.472 8.11906e-07 
908.002 8.10523e-07 
908.532 8.09193e-07 
909.062 8.07925e-07 
