#energy geo_1 
400 2.77947e-07 
400.53 2.77995e-07 
401.061 2.78043e-07 
401.591 2.78091e-07 
402.121 2.78139e-07 
402.651 2.78187e-07 
403.182 2.78235e-07 
403.712 2.78283e-07 
404.242 2.78331e-07 
404.772 2.78379e-07 
405.303 2.78428e-07 
405.833 2.78476e-07 
406.363 2.78524e-07 
406.894 2.78572e-07 
407.424 2.7862e-07 
407.954 2.78669e-07 
408.484 2.78717e-07 
409.015 2.78766e-07 
409.545 2.78814e-07 
410.075 2.78862e-07 
410.605 2.78911e-07 
411.136 2.78959e-07 
411.666 2.79008e-07 
412.196 2.79057e-07 
412.727 2.79105e-07 
413.257 2.79154e-07 
413.787 2.79202e-07 
414.317 2.79251e-07 
414.848 2.793e-07 
415.378 2.79349e-07 
415.908 2.79397e-07 
416.438 2.79446e-07 
416.969 2.79495e-07 
417.499 2.79544e-07 
418.029 2.79593e-07 
418.56 2.79642e-07 
419.09 2.79691e-07 
419.62 2.7974e-07 
420.15 2.79789e-07 
420.681 2.79838e-07 
421.211 2.79887e-07 
421.741 2.79936e-07 
422.271 2.79986e-07 
422.802 2.80035e-07 
423.332 2.80084e-07 
423.862 2.80133e-07 
424.393 2.80183e-07 
424.923 2.80232e-07 
425.453 2.80281e-07 
425.983 2.80331e-07 
426.514 2.8038e-07 
427.044 2.8043e-07 
427.574 2.80479e-07 
428.104 2.80529e-07 
428.635 2.80579e-07 
429.165 2.80628e-07 
429.695 2.80678e-07 
430.226 2.80727e-07 
430.756 2.80777e-07 
431.286 2.80827e-07 
431.816 2.80877e-07 
432.347 2.80927e-07 
432.877 2.80976e-07 
433.407 2.81026e-07 
433.938 2.81076e-07 
434.468 2.81126e-07 
434.998 2.81176e-07 
435.528 2.81226e-07 
436.059 2.81276e-07 
436.589 2.81326e-07 
437.119 2.81376e-07 
437.649 2.81427e-07 
438.18 2.81477e-07 
438.71 2.81527e-07 
439.24 2.81577e-07 
439.771 2.81628e-07 
440.301 2.81678e-07 
440.831 2.81728e-07 
441.361 2.81779e-07 
441.892 2.81829e-07 
442.422 2.81879e-07 
442.952 2.8193e-07 
443.482 2.81981e-07 
444.013 2.82031e-07 
444.543 2.82082e-07 
445.073 2.82132e-07 
445.604 2.82183e-07 
446.134 2.82234e-07 
446.664 2.82284e-07 
447.194 2.82335e-07 
447.725 2.82386e-07 
448.255 2.82437e-07 
448.785 2.82488e-07 
449.315 2.82538e-07 
449.846 2.82589e-07 
450.376 2.8264e-07 
450.906 2.82691e-07 
451.437 2.82742e-07 
451.967 2.82794e-07 
452.497 2.82845e-07 
453.027 2.82896e-07 
453.558 2.82947e-07 
454.088 2.82998e-07 
454.618 2.83049e-07 
455.148 2.83101e-07 
455.679 2.83152e-07 
456.209 2.83203e-07 
456.739 2.83255e-07 
457.27 2.83306e-07 
457.8 2.83358e-07 
458.33 2.83409e-07 
458.86 2.83461e-07 
459.391 2.83512e-07 
459.921 2.83564e-07 
460.451 2.83615e-07 
460.981 2.83667e-07 
461.512 2.83719e-07 
462.042 2.8377e-07 
462.572 2.83822e-07 
463.103 2.83874e-07 
463.633 2.83926e-07 
464.163 2.83978e-07 
464.693 2.8403e-07 
465.224 2.84082e-07 
465.754 2.84133e-07 
466.284 2.84186e-07 
466.814 2.84238e-07 
467.345 2.8429e-07 
467.875 2.84342e-07 
468.405 2.84394e-07 
468.936 2.84446e-07 
469.466 2.84498e-07 
469.996 2.8455e-07 
470.526 2.84603e-07 
471.057 2.84655e-07 
471.587 2.84707e-07 
472.117 2.8476e-07 
472.647 2.84812e-07 
473.178 2.84865e-07 
473.708 2.84917e-07 
474.238 2.8497e-07 
474.769 2.85022e-07 
475.299 2.85075e-07 
475.829 2.85127e-07 
476.359 2.8518e-07 
476.89 2.85233e-07 
477.42 2.85286e-07 
477.95 2.85338e-07 
478.48 2.85391e-07 
479.011 2.85444e-07 
479.541 2.85497e-07 
480.071 2.8555e-07 
480.602 2.85603e-07 
481.132 2.85656e-07 
481.662 2.85709e-07 
482.192 2.85762e-07 
482.723 2.85815e-07 
483.253 2.85868e-07 
483.783 2.85921e-07 
484.313 2.85974e-07 
484.844 2.86028e-07 
485.374 2.86081e-07 
485.904 2.86134e-07 
486.435 2.86188e-07 
486.965 2.86241e-07 
487.495 2.86294e-07 
488.025 2.86348e-07 
488.556 2.86401e-07 
489.086 2.86455e-07 
489.616 2.86509e-07 
490.146 2.86562e-07 
490.677 2.86616e-07 
491.207 2.86669e-07 
491.737 2.86723e-07 
492.268 2.86777e-07 
492.798 2.86831e-07 
493.328 2.86885e-07 
493.858 2.86938e-07 
494.389 2.86992e-07 
494.919 2.87046e-07 
495.449 2.871e-07 
495.979 2.87154e-07 
496.51 2.87208e-07 
497.04 2.87262e-07 
497.57 2.87316e-07 
498.101 2.8737e-07 
498.631 2.87425e-07 
499.161 2.87479e-07 
499.691 2.87533e-07 
500.222 2.87587e-07 
500.752 2.87642e-07 
501.282 2.87696e-07 
501.812 2.8775e-07 
502.343 2.87805e-07 
502.873 2.87859e-07 
503.403 2.87914e-07 
503.934 2.87968e-07 
504.464 2.88023e-07 
504.994 2.88077e-07 
505.524 2.88132e-07 
506.055 2.88187e-07 
506.585 2.88241e-07 
507.115 2.88296e-07 
507.646 2.88351e-07 
508.176 2.88406e-07 
508.706 2.88461e-07 
509.236 2.88516e-07 
509.767 2.88571e-07 
510.297 2.88626e-07 
510.827 2.88681e-07 
511.357 2.88736e-07 
511.888 2.88791e-07 
512.418 2.88846e-07 
512.948 2.88901e-07 
513.479 2.88957e-07 
514.009 2.89012e-07 
514.539 2.89067e-07 
515.069 2.89122e-07 
515.6 2.89178e-07 
516.13 2.89233e-07 
516.66 2.89288e-07 
517.19 2.89344e-07 
517.721 2.89399e-07 
518.251 2.89455e-07 
518.781 2.89511e-07 
519.312 2.89566e-07 
519.842 2.89622e-07 
520.372 2.89678e-07 
520.902 2.89733e-07 
521.433 2.89789e-07 
521.963 2.89845e-07 
522.493 2.899e-07 
523.023 2.89956e-07 
523.554 2.90012e-07 
524.084 2.90068e-07 
524.614 2.90124e-07 
525.145 2.9018e-07 
525.675 2.90236e-07 
526.205 2.90292e-07 
526.735 2.90349e-07 
527.266 2.90405e-07 
527.796 2.90461e-07 
528.326 2.90517e-07 
528.856 2.90573e-07 
529.387 2.9063e-07 
529.917 2.90686e-07 
530.447 2.90743e-07 
530.978 2.90799e-07 
531.508 2.90856e-07 
532.038 2.90912e-07 
532.568 2.90969e-07 
533.099 2.91025e-07 
533.629 2.91082e-07 
534.159 2.91138e-07 
534.689 2.91195e-07 
535.22 2.91252e-07 
535.75 2.91309e-07 
536.28 2.91365e-07 
536.811 2.91422e-07 
537.341 2.91479e-07 
537.871 2.91536e-07 
538.401 2.91593e-07 
538.932 2.9165e-07 
539.462 2.91707e-07 
539.992 2.91764e-07 
540.522 2.91821e-07 
541.053 2.91879e-07 
541.583 2.91936e-07 
542.113 2.91993e-07 
542.644 2.9205e-07 
543.174 2.92108e-07 
543.704 2.92165e-07 
544.234 2.92222e-07 
544.765 2.9228e-07 
545.295 2.92337e-07 
545.825 2.92395e-07 
546.355 2.92452e-07 
546.886 2.9251e-07 
547.416 2.92567e-07 
547.946 2.92625e-07 
548.477 2.92683e-07 
549.007 2.9274e-07 
549.537 2.92798e-07 
550.067 2.92856e-07 
550.598 2.92914e-07 
551.128 2.92972e-07 
551.658 2.9303e-07 
552.188 2.93088e-07 
552.719 2.93146e-07 
553.249 2.93204e-07 
553.779 2.93262e-07 
554.31 2.9332e-07 
554.84 2.93378e-07 
555.37 2.93436e-07 
555.9 2.93495e-07 
556.431 2.93553e-07 
556.961 2.93611e-07 
557.491 2.9367e-07 
558.021 2.93728e-07 
558.552 2.93786e-07 
559.082 2.93845e-07 
559.612 2.93903e-07 
560.143 2.93962e-07 
560.673 2.9402e-07 
561.203 2.94079e-07 
561.733 2.94138e-07 
562.264 2.94196e-07 
562.794 2.94255e-07 
563.324 2.94314e-07 
563.854 2.94373e-07 
564.385 2.94431e-07 
564.915 2.94491e-07 
565.445 2.9455e-07 
565.976 2.94608e-07 
566.506 2.94667e-07 
567.036 2.94726e-07 
567.566 2.94785e-07 
568.097 2.94845e-07 
568.627 2.94904e-07 
569.157 2.94963e-07 
569.688 2.95022e-07 
570.218 2.95082e-07 
570.748 2.95141e-07 
571.278 2.952e-07 
571.809 2.9526e-07 
572.339 2.95319e-07 
572.869 2.95379e-07 
573.399 2.95438e-07 
573.93 2.95498e-07 
574.46 2.95557e-07 
574.99 2.95617e-07 
575.521 2.95677e-07 
576.051 2.95736e-07 
576.581 2.95796e-07 
577.111 2.95856e-07 
577.642 2.95916e-07 
578.172 2.95976e-07 
578.702 2.96035e-07 
579.232 2.96095e-07 
579.763 2.96155e-07 
580.293 2.96215e-07 
580.823 2.96276e-07 
581.354 2.96336e-07 
581.884 2.96396e-07 
582.414 2.96456e-07 
582.944 2.96516e-07 
583.475 2.96576e-07 
584.005 2.96637e-07 
584.535 2.96697e-07 
585.065 2.96757e-07 
585.596 2.96818e-07 
586.126 2.96878e-07 
586.656 2.96939e-07 
587.187 2.97e-07 
587.717 2.9706e-07 
588.247 2.97121e-07 
588.777 2.97181e-07 
589.308 2.97242e-07 
589.838 2.97303e-07 
590.368 2.97364e-07 
590.898 2.97425e-07 
591.429 2.97485e-07 
591.959 2.97546e-07 
592.489 2.97607e-07 
593.02 2.97668e-07 
593.55 2.97729e-07 
594.08 2.97791e-07 
594.61 2.97852e-07 
595.141 2.97913e-07 
595.671 2.97974e-07 
596.201 2.98035e-07 
596.731 2.98097e-07 
597.262 2.98158e-07 
597.792 2.98219e-07 
598.322 2.98281e-07 
598.853 2.98342e-07 
599.383 2.98403e-07 
599.913 2.98465e-07 
600.443 2.98527e-07 
600.974 2.98588e-07 
601.504 2.9865e-07 
602.034 2.98712e-07 
602.564 2.98773e-07 
603.095 2.98835e-07 
603.625 2.98897e-07 
604.155 2.98959e-07 
604.686 2.99021e-07 
605.216 2.99082e-07 
605.746 2.99144e-07 
606.276 2.99206e-07 
606.807 2.99269e-07 
607.337 2.99331e-07 
607.867 2.99393e-07 
608.397 2.99455e-07 
608.928 2.99517e-07 
609.458 2.99579e-07 
609.988 2.99642e-07 
610.519 2.99704e-07 
611.049 2.99766e-07 
611.579 2.99829e-07 
612.109 2.99891e-07 
612.64 2.99954e-07 
613.17 3.00016e-07 
613.7 3.00079e-07 
614.23 3.00141e-07 
614.761 3.00204e-07 
615.291 3.00267e-07 
615.821 3.0033e-07 
616.352 3.00392e-07 
616.882 3.00455e-07 
617.412 3.00518e-07 
617.942 3.00581e-07 
618.473 3.00644e-07 
619.003 3.00707e-07 
619.533 3.0077e-07 
620.063 3.00833e-07 
620.594 3.00896e-07 
621.124 3.0096e-07 
621.654 3.01023e-07 
622.185 3.01086e-07 
622.715 3.01149e-07 
623.245 3.01213e-07 
623.775 3.01276e-07 
624.306 3.01339e-07 
624.836 3.01403e-07 
625.366 3.01466e-07 
625.896 3.0153e-07 
626.427 3.01594e-07 
626.957 3.01657e-07 
627.487 3.01721e-07 
628.018 3.01785e-07 
628.548 3.01848e-07 
629.078 3.01912e-07 
629.608 3.01976e-07 
630.139 3.0204e-07 
630.669 3.02104e-07 
631.199 3.02168e-07 
631.729 3.02232e-07 
632.26 3.02296e-07 
632.79 3.0236e-07 
633.32 3.02424e-07 
633.851 3.02488e-07 
634.381 3.02552e-07 
634.911 3.02616e-07 
635.441 3.02681e-07 
635.972 3.02745e-07 
636.502 3.0281e-07 
637.032 3.02874e-07 
637.562 3.02938e-07 
638.093 3.03003e-07 
638.623 3.03068e-07 
639.153 3.03132e-07 
639.684 3.03197e-07 
640.214 3.03262e-07 
640.744 3.03326e-07 
641.274 3.03391e-07 
641.805 3.03456e-07 
642.335 3.03521e-07 
642.865 3.03586e-07 
643.396 3.03651e-07 
643.926 3.03716e-07 
644.456 3.03781e-07 
644.986 3.03846e-07 
645.517 3.03911e-07 
646.047 3.03976e-07 
646.577 3.04041e-07 
647.107 3.04106e-07 
647.638 3.04172e-07 
648.168 3.04237e-07 
648.698 3.04302e-07 
649.229 3.04368e-07 
649.759 3.04433e-07 
650.289 3.04499e-07 
650.819 3.04564e-07 
651.35 3.0463e-07 
651.88 3.04696e-07 
652.41 3.04761e-07 
652.94 3.04827e-07 
653.471 3.04893e-07 
654.001 3.04958e-07 
654.531 3.05024e-07 
655.062 3.0509e-07 
655.592 3.05156e-07 
656.122 3.05222e-07 
656.652 3.05288e-07 
657.183 3.05354e-07 
657.713 3.0542e-07 
658.243 3.05486e-07 
658.773 3.05553e-07 
659.304 3.05619e-07 
659.834 3.05685e-07 
660.364 3.05752e-07 
660.895 3.05818e-07 
661.425 3.05884e-07 
661.955 3.05951e-07 
662.485 3.06017e-07 
663.016 3.06084e-07 
663.546 3.06151e-07 
664.076 3.06217e-07 
664.606 3.06284e-07 
665.137 3.06351e-07 
665.667 3.06417e-07 
666.197 3.06484e-07 
666.728 3.06551e-07 
667.258 3.06618e-07 
667.788 3.06685e-07 
668.318 3.06752e-07 
668.849 3.06819e-07 
669.379 3.06886e-07 
669.909 3.06953e-07 
670.439 3.0702e-07 
670.97 3.07087e-07 
671.5 3.07155e-07 
672.03 3.07222e-07 
672.561 3.07289e-07 
673.091 3.07357e-07 
673.621 3.07424e-07 
674.151 3.07492e-07 
674.682 3.07559e-07 
675.212 3.07627e-07 
675.742 3.07694e-07 
676.272 3.07762e-07 
676.803 3.0783e-07 
677.333 3.07898e-07 
677.863 3.07965e-07 
678.394 3.08033e-07 
678.924 3.08101e-07 
679.454 3.08169e-07 
679.984 3.08237e-07 
680.515 3.08305e-07 
681.045 3.08373e-07 
681.575 3.08441e-07 
682.105 3.08509e-07 
682.636 3.08578e-07 
683.166 3.08646e-07 
683.696 3.08714e-07 
684.227 3.08783e-07 
684.757 3.08851e-07 
685.287 3.08919e-07 
685.817 3.08988e-07 
686.348 3.09057e-07 
686.878 3.09125e-07 
687.408 3.09194e-07 
687.938 3.09263e-07 
688.469 3.09331e-07 
688.999 3.094e-07 
689.529 3.09469e-07 
690.06 3.09538e-07 
690.59 3.09606e-07 
691.12 3.09675e-07 
691.65 3.09744e-07 
692.181 3.09813e-07 
692.711 3.09882e-07 
693.241 3.09952e-07 
693.771 3.10021e-07 
694.302 3.1009e-07 
694.832 3.10159e-07 
695.362 3.10229e-07 
695.893 3.10298e-07 
696.423 3.10368e-07 
696.953 3.10437e-07 
697.483 3.10507e-07 
698.014 3.10576e-07 
698.544 3.10646e-07 
699.074 3.10715e-07 
699.604 3.10785e-07 
700.135 3.10855e-07 
700.665 3.10925e-07 
701.195 3.10995e-07 
701.726 3.11064e-07 
702.256 3.11134e-07 
702.786 3.11204e-07 
703.316 3.11274e-07 
703.847 3.11344e-07 
704.377 3.11415e-07 
704.907 3.11485e-07 
705.438 3.11555e-07 
705.968 3.11625e-07 
706.498 3.11695e-07 
707.028 3.11766e-07 
707.559 3.11836e-07 
708.089 3.11907e-07 
708.619 3.11977e-07 
709.149 3.12048e-07 
709.68 3.12118e-07 
710.21 3.12189e-07 
710.74 3.1226e-07 
711.271 3.12331e-07 
711.801 3.12401e-07 
712.331 3.12472e-07 
712.861 3.12543e-07 
713.392 3.12614e-07 
713.922 3.12685e-07 
714.452 3.12756e-07 
714.982 3.12827e-07 
715.513 3.12898e-07 
716.043 3.1297e-07 
716.573 3.13041e-07 
717.104 3.13112e-07 
717.634 3.13184e-07 
718.164 3.13255e-07 
718.694 3.13326e-07 
719.225 3.13398e-07 
719.755 3.13469e-07 
720.285 3.13541e-07 
720.815 3.13613e-07 
721.346 3.13684e-07 
721.876 3.13756e-07 
722.406 3.13828e-07 
722.937 3.139e-07 
723.467 3.13972e-07 
723.997 3.14043e-07 
724.527 3.14116e-07 
725.058 3.14188e-07 
725.588 3.1426e-07 
726.118 3.14332e-07 
726.648 3.14404e-07 
727.179 3.14476e-07 
727.709 3.14548e-07 
728.239 3.14621e-07 
728.77 3.14693e-07 
729.3 3.14766e-07 
729.83 3.14838e-07 
730.36 3.14911e-07 
730.891 3.14984e-07 
731.421 3.15056e-07 
731.951 3.15129e-07 
732.481 3.15202e-07 
733.012 3.15274e-07 
733.542 3.15347e-07 
734.072 3.1542e-07 
734.603 3.15493e-07 
735.133 3.15566e-07 
735.663 3.15639e-07 
736.193 3.15712e-07 
736.724 3.15786e-07 
737.254 3.15859e-07 
737.784 3.15932e-07 
738.314 3.16005e-07 
738.845 3.16079e-07 
739.375 3.16152e-07 
739.905 3.16226e-07 
740.436 3.16299e-07 
740.966 3.16373e-07 
741.496 3.16446e-07 
742.026 3.1652e-07 
742.557 3.16594e-07 
743.087 3.16668e-07 
743.617 3.16742e-07 
744.147 3.16815e-07 
744.678 3.16889e-07 
745.208 3.16963e-07 
745.738 3.17037e-07 
746.269 3.17112e-07 
746.799 3.17186e-07 
747.329 3.1726e-07 
747.859 3.17334e-07 
748.39 3.17409e-07 
748.92 3.17483e-07 
749.45 3.17557e-07 
749.98 3.17632e-07 
750.511 3.17706e-07 
751.041 3.17781e-07 
751.571 3.17856e-07 
752.102 3.1793e-07 
752.632 3.18005e-07 
753.162 3.1808e-07 
753.692 3.18155e-07 
754.223 3.1823e-07 
754.753 3.18305e-07 
755.283 3.1838e-07 
755.813 3.18455e-07 
756.344 3.1853e-07 
756.874 3.18605e-07 
757.404 3.1868e-07 
757.935 3.18756e-07 
758.465 3.18831e-07 
758.995 3.18906e-07 
759.525 3.18982e-07 
760.056 3.19058e-07 
760.586 3.19133e-07 
761.116 3.19209e-07 
761.646 3.19285e-07 
762.177 3.19361e-07 
762.707 3.19436e-07 
763.237 3.19512e-07 
763.768 3.19588e-07 
764.298 3.19664e-07 
764.828 3.1974e-07 
765.358 3.19816e-07 
765.889 3.19892e-07 
766.419 3.19968e-07 
766.949 3.20045e-07 
767.479 3.20121e-07 
768.01 3.20198e-07 
768.54 3.20274e-07 
769.07 3.2035e-07 
769.601 3.20427e-07 
770.131 3.20504e-07 
770.661 3.2058e-07 
771.191 3.20657e-07 
771.722 3.20734e-07 
772.252 3.20811e-07 
772.782 3.20888e-07 
773.312 3.20965e-07 
773.843 3.21041e-07 
774.373 3.21119e-07 
774.903 3.21196e-07 
775.434 3.21273e-07 
775.964 3.2135e-07 
776.494 3.21428e-07 
777.024 3.21505e-07 
777.555 3.21582e-07 
778.085 3.2166e-07 
778.615 3.21738e-07 
779.146 3.21815e-07 
779.676 3.21893e-07 
780.206 3.21971e-07 
780.736 3.22048e-07 
781.267 3.22126e-07 
781.797 3.22204e-07 
782.327 3.22282e-07 
782.857 3.2236e-07 
783.388 3.22438e-07 
783.918 3.22516e-07 
784.448 3.22594e-07 
784.979 3.22673e-07 
785.509 3.22751e-07 
786.039 3.22829e-07 
786.569 3.22908e-07 
787.1 3.22987e-07 
787.63 3.23065e-07 
788.16 3.23144e-07 
788.69 3.23223e-07 
789.221 3.23301e-07 
789.751 3.2338e-07 
790.281 3.23459e-07 
790.812 3.23538e-07 
791.342 3.23617e-07 
791.872 3.23696e-07 
792.402 3.23775e-07 
792.933 3.23855e-07 
793.463 3.23934e-07 
793.993 3.24013e-07 
794.523 3.24092e-07 
795.054 3.24172e-07 
795.584 3.24251e-07 
796.114 3.24331e-07 
796.645 3.24411e-07 
797.175 3.2449e-07 
797.705 3.2457e-07 
798.235 3.2465e-07 
798.766 3.2473e-07 
799.296 3.2481e-07 
799.826 3.2489e-07 
800.356 3.2497e-07 
800.887 3.2505e-07 
801.417 3.2513e-07 
801.947 3.25211e-07 
802.478 3.25291e-07 
803.008 3.25372e-07 
803.538 3.25452e-07 
804.068 3.25533e-07 
804.599 3.25613e-07 
805.129 3.25694e-07 
805.659 3.25775e-07 
806.189 3.25856e-07 
806.72 3.25936e-07 
807.25 3.26017e-07 
807.78 3.26099e-07 
808.311 3.2618e-07 
808.841 3.26261e-07 
809.371 3.26342e-07 
809.901 3.26423e-07 
810.432 3.26505e-07 
810.962 3.26586e-07 
811.492 3.26668e-07 
812.022 3.26749e-07 
812.553 3.26831e-07 
813.083 3.26913e-07 
813.613 3.26994e-07 
814.144 3.27076e-07 
814.674 3.27158e-07 
815.204 3.2724e-07 
815.734 3.27322e-07 
816.265 3.27404e-07 
816.795 3.27487e-07 
817.325 3.27569e-07 
817.855 3.27651e-07 
818.386 3.27734e-07 
818.916 3.27816e-07 
819.446 3.27899e-07 
819.977 3.27981e-07 
820.507 3.28064e-07 
821.037 3.28147e-07 
821.567 3.2823e-07 
822.098 3.28312e-07 
822.628 3.28395e-07 
823.158 3.28478e-07 
823.688 3.28561e-07 
824.219 3.28645e-07 
824.749 3.28728e-07 
825.279 3.28811e-07 
825.81 3.28895e-07 
826.34 3.28978e-07 
826.87 3.29062e-07 
827.4 3.29145e-07 
827.931 3.29229e-07 
828.461 3.29313e-07 
828.991 3.29396e-07 
829.521 3.29481e-07 
830.052 3.29565e-07 
830.582 3.29649e-07 
831.112 3.29733e-07 
831.643 3.29817e-07 
832.173 3.29901e-07 
832.703 3.29986e-07 
833.233 3.3007e-07 
833.764 3.30155e-07 
834.294 3.30239e-07 
834.824 3.30324e-07 
835.354 3.30409e-07 
835.885 3.30494e-07 
836.415 3.30578e-07 
836.945 3.30663e-07 
837.476 3.30748e-07 
838.006 3.30834e-07 
838.536 3.30919e-07 
839.066 3.31004e-07 
839.597 3.31089e-07 
840.127 3.31175e-07 
840.657 3.3126e-07 
841.188 3.31346e-07 
841.718 3.31432e-07 
842.248 3.31517e-07 
842.778 3.31603e-07 
843.309 3.31689e-07 
843.839 3.31775e-07 
844.369 3.31861e-07 
844.899 3.31947e-07 
845.43 3.32033e-07 
845.96 3.3212e-07 
846.49 3.32206e-07 
847.021 3.32293e-07 
847.551 3.32379e-07 
848.081 3.32466e-07 
848.611 3.32553e-07 
849.142 3.3264e-07 
849.672 3.32726e-07 
850.202 3.32813e-07 
850.732 3.329e-07 
851.263 3.32987e-07 
851.793 3.33075e-07 
852.323 3.33162e-07 
852.854 3.33249e-07 
853.384 3.33337e-07 
853.914 3.33424e-07 
854.444 3.33512e-07 
854.975 3.336e-07 
855.505 3.33687e-07 
856.035 3.33775e-07 
856.565 3.33863e-07 
857.096 3.33951e-07 
857.626 3.34039e-07 
858.156 3.34128e-07 
858.687 3.34216e-07 
859.217 3.34304e-07 
859.747 3.34393e-07 
860.277 3.34482e-07 
860.808 3.3457e-07 
861.338 3.34659e-07 
861.868 3.34748e-07 
862.398 3.34837e-07 
862.929 3.34926e-07 
863.459 3.35015e-07 
863.989 3.35104e-07 
864.52 3.35193e-07 
865.05 3.35282e-07 
865.58 3.35372e-07 
866.11 3.35461e-07 
866.641 3.35551e-07 
867.171 3.35641e-07 
867.701 3.35731e-07 
868.231 3.3582e-07 
868.762 3.3591e-07 
869.292 3.36e-07 
869.822 3.36091e-07 
870.353 3.36181e-07 
870.883 3.36271e-07 
871.413 3.36362e-07 
871.943 3.36452e-07 
872.474 3.36543e-07 
873.004 3.36633e-07 
873.534 3.36724e-07 
874.064 3.36815e-07 
874.595 3.36906e-07 
875.125 3.36997e-07 
875.655 3.37088e-07 
876.186 3.3718e-07 
876.716 3.37271e-07 
877.246 3.37363e-07 
877.776 3.37454e-07 
878.307 3.37546e-07 
878.837 3.37637e-07 
879.367 3.37729e-07 
879.897 3.37821e-07 
880.428 3.37913e-07 
880.958 3.38005e-07 
881.488 3.38098e-07 
882.019 3.3819e-07 
882.549 3.38282e-07 
883.079 3.38375e-07 
883.609 3.38467e-07 
884.14 3.3856e-07 
884.67 3.38653e-07 
885.2 3.38746e-07 
885.73 3.38839e-07 
886.261 3.38932e-07 
886.791 3.39025e-07 
887.321 3.39118e-07 
887.852 3.39212e-07 
888.382 3.39306e-07 
888.912 3.39399e-07 
889.442 3.39493e-07 
889.973 3.39587e-07 
890.503 3.39681e-07 
891.033 3.39775e-07 
891.563 3.39869e-07 
892.094 3.39963e-07 
892.624 3.40057e-07 
893.154 3.40152e-07 
893.685 3.40246e-07 
894.215 3.40341e-07 
894.745 3.40436e-07 
895.275 3.4053e-07 
895.806 3.40625e-07 
896.336 3.4072e-07 
896.866 3.40816e-07 
897.396 3.40911e-07 
897.927 3.41006e-07 
898.457 3.41102e-07 
898.987 3.41197e-07 
899.518 3.41293e-07 
900.048 3.41389e-07 
900.578 3.41485e-07 
901.108 3.41581e-07 
901.639 3.41677e-07 
902.169 3.41773e-07 
902.699 3.4187e-07 
903.229 3.41966e-07 
903.76 3.42063e-07 
904.29 3.42159e-07 
904.82 3.42256e-07 
905.351 3.42353e-07 
905.881 3.4245e-07 
906.411 3.42547e-07 
906.941 3.42644e-07 
907.472 3.42742e-07 
908.002 3.42839e-07 
908.532 3.42937e-07 
909.062 3.43034e-07 
909.593 3.43132e-07 
