#energy geo_1 
400 2.30062e-06 
400.53 2.30382e-06 
401.061 2.30716e-06 
401.591 2.31061e-06 
402.121 2.3141e-06 
402.651 2.31763e-06 
403.182 2.32124e-06 
403.712 2.32503e-06 
404.242 2.3292e-06 
404.772 2.33402e-06 
405.303 2.33983e-06 
405.833 2.34702e-06 
406.363 2.35603e-06 
406.894 2.36738e-06 
407.424 2.38171e-06 
407.954 2.39978e-06 
408.484 2.42257e-06 
409.015 2.45118e-06 
409.545 2.48687e-06 
410.075 2.5307e-06 
410.605 2.58302e-06 
411.136 2.64223e-06 
411.666 2.70317e-06 
412.196 2.75586e-06 
412.727 2.7873e-06 
413.257 2.78755e-06 
413.787 2.75648e-06 
414.317 2.70385e-06 
414.848 2.64269e-06 
415.378 2.58308e-06 
415.908 2.53035e-06 
416.438 2.48615e-06 
416.969 2.4502e-06 
417.499 2.4214e-06 
418.029 2.39851e-06 
418.56 2.3804e-06 
419.09 2.36609e-06 
419.62 2.35482e-06 
420.15 2.34596e-06 
420.681 2.33901e-06 
421.211 2.33359e-06 
421.741 2.32937e-06 
422.271 2.32608e-06 
422.802 2.32348e-06 
423.332 2.32138e-06 
423.862 2.3196e-06 
424.393 2.31803e-06 
424.923 2.31657e-06 
425.453 2.31522e-06 
425.983 2.31401e-06 
426.514 2.31304e-06 
427.044 2.31245e-06 
427.574 2.31242e-06 
428.104 2.31316e-06 
428.635 2.31495e-06 
429.165 2.31809e-06 
429.695 2.32298e-06 
430.226 2.3301e-06 
430.756 2.33999e-06 
431.286 2.35331e-06 
431.816 2.3707e-06 
432.347 2.39257e-06 
432.877 2.41871e-06 
433.407 2.44746e-06 
433.938 2.47494e-06 
434.468 2.49499e-06 
434.998 2.50127e-06 
435.528 2.49103e-06 
436.059 2.46709e-06 
436.589 2.43584e-06 
437.119 2.40345e-06 
437.649 2.37385e-06 
438.18 2.34872e-06 
438.71 2.3283e-06 
439.24 2.31218e-06 
439.771 2.29972e-06 
440.301 2.29029e-06 
440.831 2.28334e-06 
441.361 2.27843e-06 
441.892 2.27521e-06 
442.422 2.27339e-06 
442.952 2.27274e-06 
443.482 2.27307e-06 
444.013 2.27419e-06 
444.543 2.27592e-06 
445.073 2.27812e-06 
445.604 2.28067e-06 
446.134 2.28357e-06 
446.664 2.28693e-06 
447.194 2.29099e-06 
447.725 2.29612e-06 
448.255 2.30278e-06 
448.785 2.31152e-06 
449.315 2.32299e-06 
449.846 2.33793e-06 
450.376 2.35726e-06 
450.906 2.38211e-06 
451.437 2.41387e-06 
451.967 2.45418e-06 
452.497 2.50486e-06 
453.027 2.56758e-06 
453.558 2.64293e-06 
454.088 2.72888e-06 
454.618 2.81824e-06 
455.148 2.89684e-06 
455.679 2.94552e-06 
456.209 2.94884e-06 
456.739 2.90514e-06 
457.27 2.82779e-06 
457.8 2.73596e-06 
458.33 2.64518e-06 
458.86 2.56394e-06 
459.391 2.49514e-06 
459.921 2.43854e-06 
460.451 2.39262e-06 
460.981 2.35553e-06 
461.512 2.32558e-06 
462.042 2.30132e-06 
462.572 2.28159e-06 
463.103 2.26548e-06 
463.633 2.2523e-06 
464.163 2.24149e-06 
464.693 2.23263e-06 
465.224 2.22538e-06 
465.754 2.21947e-06 
466.284 2.21467e-06 
466.814 2.2108e-06 
467.345 2.20771e-06 
467.875 2.20531e-06 
468.405 2.20358e-06 
468.936 2.20256e-06 
469.466 2.20234e-06 
469.996 2.20312e-06 
470.526 2.20509e-06 
471.057 2.20853e-06 
471.587 2.21375e-06 
472.117 2.22113e-06 
472.647 2.23115e-06 
473.178 2.24442e-06 
473.708 2.26165e-06 
474.238 2.28371e-06 
474.769 2.31146e-06 
475.299 2.3455e-06 
475.829 2.38558e-06 
476.359 2.42954e-06 
476.89 2.47208e-06 
477.42 2.50466e-06 
477.95 2.5181e-06 
478.48 2.50786e-06 
479.011 2.47722e-06 
479.541 2.43486e-06 
480.071 2.38969e-06 
480.602 2.34758e-06 
481.132 2.31115e-06 
481.662 2.28092e-06 
482.192 2.25634e-06 
482.723 2.23656e-06 
483.253 2.22068e-06 
483.783 2.20793e-06 
484.313 2.19771e-06 
484.844 2.18953e-06 
485.374 2.18307e-06 
485.904 2.1781e-06 
486.435 2.17447e-06 
486.965 2.17209e-06 
487.495 2.17095e-06 
488.025 2.17106e-06 
488.556 2.17252e-06 
489.086 2.17545e-06 
489.616 2.18008e-06 
490.146 2.18665e-06 
490.677 2.19545e-06 
491.207 2.2067e-06 
491.737 2.22035e-06 
492.268 2.23575e-06 
492.798 2.25115e-06 
493.328 2.26358e-06 
493.858 2.26957e-06 
494.389 2.26704e-06 
494.919 2.25669e-06 
495.449 2.24149e-06 
495.979 2.2248e-06 
496.51 2.20899e-06 
497.04 2.19521e-06 
497.57 2.18375e-06 
498.101 2.17446e-06 
498.631 2.16702e-06 
499.161 2.16111e-06 
499.691 2.15642e-06 
500.222 2.15271e-06 
500.752 2.14977e-06 
501.282 2.14745e-06 
501.812 2.14562e-06 
502.343 2.14417e-06 
502.873 2.14302e-06 
503.403 2.14209e-06 
503.934 2.14134e-06 
504.464 2.1407e-06 
504.994 2.14015e-06 
505.524 2.13965e-06 
506.055 2.13917e-06 
506.585 2.1387e-06 
507.115 2.13823e-06 
507.646 2.13775e-06 
508.176 2.13726e-06 
508.706 2.13676e-06 
509.236 2.13624e-06 
509.767 2.13573e-06 
510.297 2.1352e-06 
510.827 2.13469e-06 
511.357 2.1342e-06 
511.888 2.13373e-06 
512.418 2.13329e-06 
512.948 2.13289e-06 
513.479 2.13253e-06 
514.009 2.13221e-06 
514.539 2.13194e-06 
515.069 2.13174e-06 
515.6 2.13159e-06 
516.13 2.13152e-06 
516.66 2.13152e-06 
517.19 2.1316e-06 
517.721 2.13178e-06 
518.251 2.13205e-06 
518.781 2.13241e-06 
519.312 2.13287e-06 
519.842 2.13343e-06 
520.372 2.13409e-06 
520.902 2.13483e-06 
521.433 2.13567e-06 
521.963 2.13659e-06 
522.493 2.13761e-06 
523.023 2.13871e-06 
523.554 2.13991e-06 
524.084 2.1412e-06 
524.614 2.14257e-06 
525.145 2.14402e-06 
525.675 2.14554e-06 
526.205 2.14712e-06 
526.735 2.14876e-06 
527.266 2.15047e-06 
527.796 2.15232e-06 
528.326 2.15438e-06 
528.856 2.15676e-06 
529.387 2.15959e-06 
529.917 2.16302e-06 
530.447 2.16722e-06 
530.978 2.1724e-06 
531.508 2.1788e-06 
532.038 2.18672e-06 
532.568 2.19655e-06 
533.099 2.20871e-06 
533.629 2.22367e-06 
534.159 2.2418e-06 
534.689 2.26313e-06 
535.22 2.28684e-06 
535.75 2.31062e-06 
536.28 2.3304e-06 
536.811 2.34126e-06 
537.341 2.33998e-06 
537.871 2.32721e-06 
538.401 2.30698e-06 
538.932 2.28411e-06 
539.462 2.26214e-06 
539.992 2.24288e-06 
540.522 2.22685e-06 
541.053 2.21387e-06 
541.583 2.20352e-06 
542.113 2.19533e-06 
542.644 2.18888e-06 
543.174 2.1838e-06 
543.704 2.17981e-06 
544.234 2.17667e-06 
544.765 2.17422e-06 
545.295 2.17229e-06 
545.825 2.17078e-06 
546.355 2.16957e-06 
546.886 2.1686e-06 
547.416 2.16779e-06 
547.946 2.16708e-06 
548.477 2.16644e-06 
549.007 2.16584e-06 
549.537 2.16524e-06 
550.067 2.16464e-06 
550.598 2.16402e-06 
551.128 2.16338e-06 
551.658 2.16272e-06 
552.188 2.16205e-06 
552.719 2.16136e-06 
553.249 2.16066e-06 
553.779 2.15997e-06 
554.31 2.1593e-06 
554.84 2.15866e-06 
555.37 2.15806e-06 
555.9 2.15751e-06 
556.431 2.157e-06 
556.961 2.15656e-06 
557.491 2.15618e-06 
558.021 2.15588e-06 
558.552 2.15566e-06 
559.082 2.15554e-06 
559.612 2.15552e-06 
560.143 2.15561e-06 
560.673 2.15583e-06 
561.203 2.15617e-06 
561.733 2.15664e-06 
562.264 2.15724e-06 
562.794 2.15798e-06 
563.324 2.15884e-06 
563.854 2.15983e-06 
564.385 2.16094e-06 
564.915 2.16216e-06 
565.445 2.16351e-06 
565.976 2.16498e-06 
566.506 2.16657e-06 
567.036 2.16829e-06 
567.566 2.17012e-06 
568.097 2.17205e-06 
568.627 2.17407e-06 
569.157 2.17617e-06 
569.688 2.17835e-06 
570.218 2.18063e-06 
570.748 2.18308e-06 
571.278 2.1858e-06 
571.809 2.18892e-06 
572.339 2.19263e-06 
572.869 2.19711e-06 
573.399 2.20259e-06 
573.93 2.20933e-06 
574.46 2.21768e-06 
574.99 2.22802e-06 
575.521 2.24084e-06 
576.051 2.25674e-06 
576.581 2.27634e-06 
577.111 2.30015e-06 
577.642 2.32827e-06 
578.172 2.35971e-06 
578.702 2.39158e-06 
579.232 2.41858e-06 
579.763 2.43414e-06 
580.293 2.43362e-06 
580.823 2.41737e-06 
581.354 2.39048e-06 
581.884 2.35943e-06 
582.414 2.3292e-06 
582.944 2.30241e-06 
583.475 2.27989e-06 
584.005 2.26148e-06 
584.535 2.24662e-06 
585.065 2.2347e-06 
585.596 2.22514e-06 
586.126 2.21745e-06 
586.656 2.21125e-06 
587.187 2.20624e-06 
587.717 2.20218e-06 
588.247 2.19889e-06 
588.777 2.19621e-06 
589.308 2.19405e-06 
589.838 2.1923e-06 
590.368 2.1909e-06 
590.898 2.18979e-06 
591.429 2.18892e-06 
591.959 2.18826e-06 
592.489 2.18778e-06 
593.02 2.18745e-06 
593.55 2.18725e-06 
594.08 2.18716e-06 
594.61 2.18717e-06 
595.141 2.18726e-06 
595.671 2.18744e-06 
596.201 2.18768e-06 
596.731 2.18798e-06 
597.262 2.18833e-06 
597.792 2.18873e-06 
598.322 2.18917e-06 
598.853 2.18965e-06 
599.383 2.19017e-06 
599.913 2.19072e-06 
600.443 2.1913e-06 
600.974 2.1919e-06 
601.504 2.19253e-06 
602.034 2.19318e-06 
602.564 2.19385e-06 
603.095 2.19454e-06 
603.625 2.19524e-06 
604.155 2.19597e-06 
604.686 2.19671e-06 
605.216 2.19746e-06 
605.746 2.19823e-06 
606.276 2.19901e-06 
606.807 2.1998e-06 
607.337 2.2006e-06 
607.867 2.20141e-06 
608.397 2.20223e-06 
608.928 2.20307e-06 
609.458 2.20391e-06 
609.988 2.20475e-06 
610.519 2.20561e-06 
611.049 2.20648e-06 
611.579 2.20735e-06 
612.109 2.20823e-06 
612.64 2.20911e-06 
613.17 2.21e-06 
613.7 2.2109e-06 
614.23 2.2118e-06 
614.761 2.21271e-06 
615.291 2.21363e-06 
615.821 2.21455e-06 
616.352 2.21547e-06 
616.882 2.2164e-06 
617.412 2.21734e-06 
617.942 2.21828e-06 
618.473 2.21922e-06 
619.003 2.22017e-06 
619.533 2.22112e-06 
620.063 2.22208e-06 
620.594 2.22304e-06 
621.124 2.22401e-06 
621.654 2.22497e-06 
622.185 2.22595e-06 
622.715 2.22693e-06 
623.245 2.22791e-06 
623.775 2.22889e-06 
624.306 2.22988e-06 
624.836 2.23088e-06 
625.366 2.23187e-06 
625.896 2.23287e-06 
626.427 2.23388e-06 
626.957 2.23489e-06 
627.487 2.2359e-06 
628.018 2.23692e-06 
628.548 2.23793e-06 
629.078 2.23896e-06 
629.608 2.23998e-06 
630.139 2.24101e-06 
630.669 2.24204e-06 
631.199 2.24308e-06 
631.729 2.24412e-06 
632.26 2.24516e-06 
632.79 2.2462e-06 
633.32 2.24725e-06 
633.851 2.2483e-06 
634.381 2.24936e-06 
634.911 2.25041e-06 
635.441 2.25147e-06 
635.972 2.25253e-06 
636.502 2.2536e-06 
637.032 2.25467e-06 
637.562 2.25574e-06 
638.093 2.25681e-06 
638.623 2.25789e-06 
639.153 2.25897e-06 
639.684 2.26005e-06 
640.214 2.26114e-06 
640.744 2.26223e-06 
641.274 2.26332e-06 
641.805 2.26442e-06 
642.335 2.26552e-06 
642.865 2.26662e-06 
643.396 2.26773e-06 
643.926 2.26884e-06 
644.456 2.26996e-06 
644.986 2.27108e-06 
645.517 2.2722e-06 
646.047 2.27332e-06 
646.577 2.27445e-06 
647.107 2.27559e-06 
647.638 2.27672e-06 
648.168 2.27787e-06 
648.698 2.27901e-06 
649.229 2.28016e-06 
649.759 2.28132e-06 
650.289 2.28247e-06 
650.819 2.28364e-06 
651.35 2.2848e-06 
651.88 2.28597e-06 
652.41 2.28714e-06 
652.94 2.28832e-06 
653.471 2.2895e-06 
654.001 2.29068e-06 
654.531 2.29186e-06 
655.062 2.29305e-06 
655.592 2.29424e-06 
656.122 2.29543e-06 
656.652 2.29663e-06 
657.183 2.29783e-06 
657.713 2.29903e-06 
658.243 2.30023e-06 
658.773 2.30143e-06 
659.304 2.30264e-06 
659.834 2.30384e-06 
660.364 2.30505e-06 
660.895 2.30626e-06 
661.425 2.30748e-06 
661.955 2.30869e-06 
662.485 2.30991e-06 
663.016 2.31113e-06 
663.546 2.31235e-06 
664.076 2.31357e-06 
664.606 2.3148e-06 
665.137 2.31602e-06 
665.667 2.31725e-06 
666.197 2.31849e-06 
666.728 2.31972e-06 
667.258 2.32096e-06 
667.788 2.3222e-06 
668.318 2.32345e-06 
668.849 2.3247e-06 
669.379 2.32596e-06 
669.909 2.32721e-06 
670.439 2.32848e-06 
670.97 2.32974e-06 
671.5 2.33102e-06 
672.03 2.33229e-06 
672.561 2.33357e-06 
673.091 2.33486e-06 
673.621 2.33615e-06 
674.151 2.33745e-06 
674.682 2.33875e-06 
675.212 2.34006e-06 
675.742 2.34137e-06 
676.272 2.34268e-06 
676.803 2.34401e-06 
677.333 2.34533e-06 
677.863 2.34666e-06 
678.394 2.348e-06 
678.924 2.34934e-06 
679.454 2.35068e-06 
679.984 2.35203e-06 
680.515 2.35338e-06 
681.045 2.35473e-06 
681.575 2.35609e-06 
682.105 2.35745e-06 
682.636 2.35881e-06 
683.166 2.36018e-06 
683.696 2.36155e-06 
684.227 2.36292e-06 
684.757 2.3643e-06 
685.287 2.36568e-06 
685.817 2.36706e-06 
686.348 2.36844e-06 
686.878 2.36982e-06 
687.408 2.37121e-06 
687.938 2.3726e-06 
688.469 2.37399e-06 
688.999 2.37539e-06 
689.529 2.37679e-06 
690.06 2.37819e-06 
690.59 2.37959e-06 
691.12 2.38099e-06 
691.65 2.3824e-06 
692.181 2.38381e-06 
692.711 2.38523e-06 
693.241 2.38664e-06 
693.771 2.38806e-06 
694.302 2.38948e-06 
694.832 2.39091e-06 
695.362 2.39234e-06 
695.893 2.39377e-06 
696.423 2.39521e-06 
696.953 2.39665e-06 
697.483 2.39809e-06 
698.014 2.39954e-06 
698.544 2.40099e-06 
699.074 2.40244e-06 
699.604 2.4039e-06 
700.135 2.40536e-06 
700.665 2.40683e-06 
701.195 2.4083e-06 
701.726 2.40978e-06 
702.256 2.41126e-06 
702.786 2.41275e-06 
703.316 2.41424e-06 
703.847 2.41574e-06 
704.377 2.41724e-06 
704.907 2.41875e-06 
705.438 2.42026e-06 
705.968 2.42178e-06 
706.498 2.42331e-06 
707.028 2.42484e-06 
707.559 2.42638e-06 
708.089 2.42792e-06 
708.619 2.42947e-06 
709.149 2.43102e-06 
709.68 2.43258e-06 
710.21 2.43415e-06 
710.74 2.43572e-06 
711.271 2.43729e-06 
711.801 2.43887e-06 
712.331 2.44046e-06 
712.861 2.44205e-06 
713.392 2.44364e-06 
713.922 2.44524e-06 
714.452 2.44684e-06 
714.982 2.44844e-06 
715.513 2.45004e-06 
716.043 2.45165e-06 
716.573 2.45326e-06 
717.104 2.45487e-06 
717.634 2.45649e-06 
718.164 2.4581e-06 
718.694 2.45972e-06 
719.225 2.46134e-06 
719.755 2.46296e-06 
720.285 2.46459e-06 
720.815 2.46621e-06 
721.346 2.46784e-06 
721.876 2.46947e-06 
722.406 2.47111e-06 
722.937 2.47275e-06 
723.467 2.47439e-06 
723.997 2.47604e-06 
724.527 2.4777e-06 
725.058 2.47936e-06 
725.588 2.48102e-06 
726.118 2.48269e-06 
726.648 2.48437e-06 
727.179 2.48605e-06 
727.709 2.48774e-06 
728.239 2.48943e-06 
728.77 2.49114e-06 
729.3 2.49284e-06 
729.83 2.49456e-06 
730.36 2.49628e-06 
730.891 2.49801e-06 
731.421 2.49974e-06 
731.951 2.50148e-06 
732.481 2.50323e-06 
733.012 2.50498e-06 
733.542 2.50673e-06 
734.072 2.50849e-06 
734.603 2.51025e-06 
735.133 2.51202e-06 
735.663 2.51379e-06 
736.193 2.51557e-06 
736.724 2.51735e-06 
737.254 2.51913e-06 
737.784 2.52092e-06 
738.314 2.52272e-06 
738.845 2.52452e-06 
739.375 2.52632e-06 
739.905 2.52813e-06 
740.436 2.52994e-06 
740.966 2.53176e-06 
741.496 2.53359e-06 
742.026 2.53542e-06 
742.557 2.53726e-06 
743.087 2.5391e-06 
743.617 2.54095e-06 
744.147 2.54281e-06 
744.678 2.54467e-06 
745.208 2.54654e-06 
745.738 2.54841e-06 
746.269 2.55029e-06 
746.799 2.55217e-06 
747.329 2.55406e-06 
747.859 2.55595e-06 
748.39 2.55785e-06 
748.92 2.55975e-06 
749.45 2.56166e-06 
749.98 2.56357e-06 
750.511 2.56549e-06 
751.041 2.56741e-06 
751.571 2.56933e-06 
752.102 2.57126e-06 
752.632 2.5732e-06 
753.162 2.57514e-06 
753.692 2.57709e-06 
754.223 2.57904e-06 
754.753 2.581e-06 
755.283 2.58297e-06 
755.813 2.58494e-06 
756.344 2.58692e-06 
756.874 2.58891e-06 
757.404 2.59091e-06 
757.935 2.59291e-06 
758.465 2.59492e-06 
758.995 2.59694e-06 
759.525 2.59896e-06 
760.056 2.60099e-06 
760.586 2.60303e-06 
761.116 2.60506e-06 
761.646 2.60711e-06 
762.177 2.60916e-06 
762.707 2.61121e-06 
763.237 2.61326e-06 
763.768 2.61532e-06 
764.298 2.61738e-06 
764.828 2.61944e-06 
765.358 2.62151e-06 
765.889 2.62358e-06 
766.419 2.62565e-06 
766.949 2.62773e-06 
767.479 2.62982e-06 
768.01 2.6319e-06 
768.54 2.634e-06 
769.07 2.63611e-06 
769.601 2.63822e-06 
770.131 2.64034e-06 
770.661 2.64248e-06 
771.191 2.64462e-06 
771.722 2.64677e-06 
772.252 2.64894e-06 
772.782 2.65111e-06 
773.312 2.6533e-06 
773.843 2.65549e-06 
774.373 2.6577e-06 
774.903 2.65991e-06 
775.434 2.66212e-06 
775.964 2.66435e-06 
776.494 2.66657e-06 
777.024 2.66881e-06 
777.555 2.67105e-06 
778.085 2.67329e-06 
778.615 2.67553e-06 
779.146 2.67778e-06 
779.676 2.68004e-06 
780.206 2.6823e-06 
780.736 2.68457e-06 
781.267 2.68685e-06 
781.797 2.68913e-06 
782.327 2.69142e-06 
782.857 2.69372e-06 
783.388 2.69603e-06 
783.918 2.69834e-06 
784.448 2.70067e-06 
784.979 2.703e-06 
785.509 2.70534e-06 
786.039 2.70769e-06 
786.569 2.71004e-06 
787.1 2.7124e-06 
787.63 2.71476e-06 
788.16 2.71712e-06 
788.69 2.71949e-06 
789.221 2.72186e-06 
789.751 2.72423e-06 
790.281 2.72661e-06 
790.812 2.72899e-06 
791.342 2.73138e-06 
791.872 2.73378e-06 
792.402 2.73619e-06 
792.933 2.73861e-06 
793.463 2.74105e-06 
793.993 2.7435e-06 
794.523 2.74597e-06 
795.054 2.74846e-06 
795.584 2.75096e-06 
796.114 2.75348e-06 
796.645 2.75601e-06 
797.175 2.75855e-06 
797.705 2.76111e-06 
798.235 2.76366e-06 
798.766 2.76623e-06 
799.296 2.76879e-06 
799.826 2.77135e-06 
800.356 2.77391e-06 
800.887 2.77648e-06 
801.417 2.77905e-06 
801.947 2.78163e-06 
802.478 2.78422e-06 
803.008 2.78683e-06 
803.538 2.78944e-06 
804.068 2.79206e-06 
804.599 2.7947e-06 
805.129 2.79733e-06 
805.659 2.79998e-06 
806.189 2.80264e-06 
806.72 2.8053e-06 
807.25 2.80797e-06 
807.78 2.81066e-06 
808.311 2.81335e-06 
808.841 2.81606e-06 
809.371 2.81877e-06 
809.901 2.8215e-06 
810.432 2.82424e-06 
810.962 2.82699e-06 
811.492 2.82975e-06 
812.022 2.83253e-06 
812.553 2.83533e-06 
813.083 2.83814e-06 
813.613 2.84097e-06 
814.144 2.84383e-06 
814.674 2.84671e-06 
815.204 2.8496e-06 
815.734 2.85253e-06 
816.265 2.85548e-06 
816.795 2.85847e-06 
817.325 2.86148e-06 
817.855 2.86451e-06 
818.386 2.86758e-06 
818.916 2.87067e-06 
819.446 2.87379e-06 
819.977 2.87693e-06 
820.507 2.88009e-06 
821.037 2.88328e-06 
821.567 2.88649e-06 
822.098 2.88972e-06 
822.628 2.89296e-06 
823.158 2.89623e-06 
823.688 2.89951e-06 
824.219 2.90282e-06 
824.749 2.90615e-06 
825.279 2.9095e-06 
825.81 2.91287e-06 
826.34 2.91628e-06 
826.87 2.91971e-06 
827.4 2.92315e-06 
827.931 2.92662e-06 
828.461 2.93011e-06 
828.991 2.93361e-06 
829.521 2.93713e-06 
830.052 2.94065e-06 
830.582 2.94417e-06 
831.112 2.94769e-06 
831.643 2.95121e-06 
832.173 2.95472e-06 
832.703 2.95821e-06 
833.233 2.96168e-06 
833.764 2.96512e-06 
834.294 2.96854e-06 
834.824 2.97191e-06 
835.354 2.97523e-06 
835.885 2.97848e-06 
836.415 2.98166e-06 
836.945 2.98476e-06 
837.476 2.98777e-06 
838.006 2.99068e-06 
838.536 2.99348e-06 
839.066 2.99617e-06 
839.597 2.99877e-06 
840.127 3.00127e-06 
840.657 3.00367e-06 
841.188 3.00599e-06 
841.718 3.00823e-06 
842.248 3.01041e-06 
842.778 3.01253e-06 
843.309 3.0146e-06 
843.839 3.01663e-06 
844.369 3.01862e-06 
844.899 3.02059e-06 
845.43 3.02256e-06 
845.96 3.02453e-06 
846.49 3.02653e-06 
847.021 3.02859e-06 
847.551 3.03074e-06 
848.081 3.03301e-06 
848.611 3.03543e-06 
849.142 3.03799e-06 
849.672 3.04073e-06 
850.202 3.04363e-06 
850.732 3.04671e-06 
851.263 3.04995e-06 
851.793 3.0533e-06 
852.323 3.05677e-06 
852.854 3.06035e-06 
853.384 3.06401e-06 
853.914 3.06776e-06 
854.444 3.07156e-06 
854.975 3.07543e-06 
855.505 3.07936e-06 
856.035 3.08334e-06 
856.565 3.08737e-06 
857.096 3.09147e-06 
857.626 3.09567e-06 
858.156 3.10005e-06 
858.687 3.10472e-06 
859.217 3.1098e-06 
859.747 3.11545e-06 
860.277 3.12176e-06 
860.808 3.12881e-06 
861.338 3.13663e-06 
861.868 3.1452e-06 
862.398 3.15443e-06 
862.929 3.16425e-06 
863.459 3.17456e-06 
863.989 3.18531e-06 
864.52 3.19647e-06 
865.05 3.20804e-06 
865.58 3.21995e-06 
866.11 3.23197e-06 
866.641 3.24369e-06 
867.171 3.25449e-06 
867.701 3.26362e-06 
868.231 3.27043e-06 
868.762 3.27449e-06 
869.292 3.27561e-06 
869.822 3.27408e-06 
870.353 3.27037e-06 
870.883 3.26485e-06 
871.413 3.25764e-06 
871.943 3.2487e-06 
872.474 3.23795e-06 
873.004 3.2254e-06 
873.534 3.21143e-06 
874.064 3.19672e-06 
874.595 3.18196e-06 
875.125 3.16767e-06 
875.655 3.15404e-06 
876.186 3.14096e-06 
876.716 3.12828e-06 
877.246 3.1159e-06 
877.776 3.10381e-06 
878.307 3.09209e-06 
878.837 3.08085e-06 
879.367 3.07035e-06 
879.897 3.06095e-06 
880.428 3.05307e-06 
880.958 3.04703e-06 
881.488 3.04291e-06 
882.019 3.04065e-06 
882.549 3.04035e-06 
883.079 3.04217e-06 
883.609 3.04599e-06 
884.14 3.05131e-06 
884.67 3.0575e-06 
885.2 3.0641e-06 
885.73 3.07104e-06 
886.261 3.07866e-06 
886.791 3.08763e-06 
887.321 3.09859e-06 
887.852 3.11197e-06 
888.382 3.128e-06 
888.912 3.14624e-06 
889.442 3.16454e-06 
889.973 3.17876e-06 
890.503 3.18384e-06 
891.033 3.17763e-06 
891.563 3.16334e-06 
892.094 3.1466e-06 
892.624 3.13251e-06 
893.154 3.12447e-06 
893.685 3.12386e-06 
894.215 3.1313e-06 
894.745 3.14798e-06 
895.275 3.17615e-06 
895.806 3.21966e-06 
896.336 3.28512e-06 
896.866 3.38454e-06 
897.396 3.54037e-06 
897.927 3.79853e-06 
898.457 4.26333e-06 
898.987 5.2013e-06 
899.518 7.3391e-06 
900.048 1.15911e-05 
900.578 1.34625e-05 
901.108 1.01784e-05 
901.639 6.52175e-06 
902.169 4.8529e-06 
902.699 4.09973e-06 
903.229 3.71407e-06 
903.76 3.49421e-06 
904.29 3.35846e-06 
904.82 3.26953e-06 
905.351 3.20863e-06 
905.881 3.1655e-06 
906.411 3.13418e-06 
906.941 3.111e-06 
907.472 3.09362e-06 
908.002 3.08049e-06 
908.532 3.07054e-06 
909.062 3.06303e-06 
