#energy geo_1 
400 3.81826e-07 
400.53 3.8189e-07 
401.061 3.81954e-07 
401.591 3.82018e-07 
402.121 3.82082e-07 
402.651 3.82146e-07 
403.182 3.82211e-07 
403.712 3.82275e-07 
404.242 3.82339e-07 
404.772 3.82403e-07 
405.303 3.82468e-07 
405.833 3.82532e-07 
406.363 3.82597e-07 
406.894 3.82661e-07 
407.424 3.82726e-07 
407.954 3.82791e-07 
408.484 3.82855e-07 
409.015 3.8292e-07 
409.545 3.82985e-07 
410.075 3.8305e-07 
410.605 3.83114e-07 
411.136 3.8318e-07 
411.666 3.83244e-07 
412.196 3.83309e-07 
412.727 3.83375e-07 
413.257 3.8344e-07 
413.787 3.83505e-07 
414.317 3.8357e-07 
414.848 3.83635e-07 
415.378 3.83701e-07 
415.908 3.83766e-07 
416.438 3.83831e-07 
416.969 3.83897e-07 
417.499 3.83962e-07 
418.029 3.84028e-07 
418.56 3.84094e-07 
419.09 3.84159e-07 
419.62 3.84225e-07 
420.15 3.84291e-07 
420.681 3.84356e-07 
421.211 3.84422e-07 
421.741 3.84488e-07 
422.271 3.84554e-07 
422.802 3.8462e-07 
423.332 3.84686e-07 
423.862 3.84752e-07 
424.393 3.84818e-07 
424.923 3.84884e-07 
425.453 3.84951e-07 
425.983 3.85017e-07 
426.514 3.85083e-07 
427.044 3.8515e-07 
427.574 3.85216e-07 
428.104 3.85283e-07 
428.635 3.85349e-07 
429.165 3.85416e-07 
429.695 3.85482e-07 
430.226 3.85549e-07 
430.756 3.85616e-07 
431.286 3.85683e-07 
431.816 3.8575e-07 
432.347 3.85816e-07 
432.877 3.85883e-07 
433.407 3.85951e-07 
433.938 3.86018e-07 
434.468 3.86084e-07 
434.998 3.86152e-07 
435.528 3.86219e-07 
436.059 3.86286e-07 
436.589 3.86353e-07 
437.119 3.86421e-07 
437.649 3.86488e-07 
438.18 3.86556e-07 
438.71 3.86623e-07 
439.24 3.86691e-07 
439.771 3.86758e-07 
440.301 3.86826e-07 
440.831 3.86894e-07 
441.361 3.86961e-07 
441.892 3.87029e-07 
442.422 3.87097e-07 
442.952 3.87165e-07 
443.482 3.87233e-07 
444.013 3.87301e-07 
444.543 3.87369e-07 
445.073 3.87437e-07 
445.604 3.87506e-07 
446.134 3.87574e-07 
446.664 3.87642e-07 
447.194 3.8771e-07 
447.725 3.87779e-07 
448.255 3.87848e-07 
448.785 3.87916e-07 
449.315 3.87984e-07 
449.846 3.88053e-07 
450.376 3.88122e-07 
450.906 3.88191e-07 
451.437 3.88259e-07 
451.967 3.88328e-07 
452.497 3.88397e-07 
453.027 3.88466e-07 
453.558 3.88535e-07 
454.088 3.88604e-07 
454.618 3.88673e-07 
455.148 3.88742e-07 
455.679 3.88811e-07 
456.209 3.88881e-07 
456.739 3.8895e-07 
457.27 3.89019e-07 
457.8 3.89089e-07 
458.33 3.89158e-07 
458.86 3.89228e-07 
459.391 3.89297e-07 
459.921 3.89367e-07 
460.451 3.89437e-07 
460.981 3.89506e-07 
461.512 3.89576e-07 
462.042 3.89646e-07 
462.572 3.89716e-07 
463.103 3.89786e-07 
463.633 3.89856e-07 
464.163 3.89926e-07 
464.693 3.89996e-07 
465.224 3.90066e-07 
465.754 3.90137e-07 
466.284 3.90207e-07 
466.814 3.90277e-07 
467.345 3.90348e-07 
467.875 3.90418e-07 
468.405 3.90489e-07 
468.936 3.90559e-07 
469.466 3.9063e-07 
469.996 3.90701e-07 
470.526 3.90771e-07 
471.057 3.90842e-07 
471.587 3.90913e-07 
472.117 3.90984e-07 
472.647 3.91055e-07 
473.178 3.91126e-07 
473.708 3.91197e-07 
474.238 3.91268e-07 
474.769 3.91339e-07 
475.299 3.91411e-07 
475.829 3.91482e-07 
476.359 3.91553e-07 
476.89 3.91625e-07 
477.42 3.91696e-07 
477.95 3.91768e-07 
478.48 3.91839e-07 
479.011 3.91911e-07 
479.541 3.91983e-07 
480.071 3.92054e-07 
480.602 3.92126e-07 
481.132 3.92198e-07 
481.662 3.9227e-07 
482.192 3.92342e-07 
482.723 3.92414e-07 
483.253 3.92486e-07 
483.783 3.92559e-07 
484.313 3.92631e-07 
484.844 3.92703e-07 
485.374 3.92775e-07 
485.904 3.92848e-07 
486.435 3.9292e-07 
486.965 3.92993e-07 
487.495 3.93065e-07 
488.025 3.93138e-07 
488.556 3.93211e-07 
489.086 3.93283e-07 
489.616 3.93356e-07 
490.146 3.93429e-07 
490.677 3.93502e-07 
491.207 3.93575e-07 
491.737 3.93648e-07 
492.268 3.93721e-07 
492.798 3.93794e-07 
493.328 3.93867e-07 
493.858 3.93941e-07 
494.389 3.94014e-07 
494.919 3.94087e-07 
495.449 3.94161e-07 
495.979 3.94234e-07 
496.51 3.94308e-07 
497.04 3.94382e-07 
497.57 3.94455e-07 
498.101 3.94529e-07 
498.631 3.94603e-07 
499.161 3.94677e-07 
499.691 3.94751e-07 
500.222 3.94825e-07 
500.752 3.94899e-07 
501.282 3.94973e-07 
501.812 3.95047e-07 
502.343 3.95121e-07 
502.873 3.95196e-07 
503.403 3.9527e-07 
503.934 3.95344e-07 
504.464 3.95419e-07 
504.994 3.95493e-07 
505.524 3.95568e-07 
506.055 3.95643e-07 
506.585 3.95717e-07 
507.115 3.95792e-07 
507.646 3.95867e-07 
508.176 3.95942e-07 
508.706 3.96017e-07 
509.236 3.96092e-07 
509.767 3.96167e-07 
510.297 3.96242e-07 
510.827 3.96317e-07 
511.357 3.96393e-07 
511.888 3.96468e-07 
512.418 3.96543e-07 
512.948 3.96619e-07 
513.479 3.96694e-07 
514.009 3.9677e-07 
514.539 3.96846e-07 
515.069 3.96921e-07 
515.6 3.96997e-07 
516.13 3.97073e-07 
516.66 3.97149e-07 
517.19 3.97225e-07 
517.721 3.97301e-07 
518.251 3.97377e-07 
518.781 3.97453e-07 
519.312 3.9753e-07 
519.842 3.97606e-07 
520.372 3.97682e-07 
520.902 3.97759e-07 
521.433 3.97835e-07 
521.963 3.97912e-07 
522.493 3.97988e-07 
523.023 3.98065e-07 
523.554 3.98141e-07 
524.084 3.98218e-07 
524.614 3.98295e-07 
525.145 3.98372e-07 
525.675 3.98449e-07 
526.205 3.98526e-07 
526.735 3.98603e-07 
527.266 3.9868e-07 
527.796 3.98758e-07 
528.326 3.98835e-07 
528.856 3.98912e-07 
529.387 3.9899e-07 
529.917 3.99067e-07 
530.447 3.99145e-07 
530.978 3.99222e-07 
531.508 3.993e-07 
532.038 3.99378e-07 
532.568 3.99456e-07 
533.099 3.99534e-07 
533.629 3.99612e-07 
534.159 3.9969e-07 
534.689 3.99768e-07 
535.22 3.99846e-07 
535.75 3.99924e-07 
536.28 4.00003e-07 
536.811 4.00081e-07 
537.341 4.00159e-07 
537.871 4.00238e-07 
538.401 4.00316e-07 
538.932 4.00395e-07 
539.462 4.00474e-07 
539.992 4.00552e-07 
540.522 4.00631e-07 
541.053 4.0071e-07 
541.583 4.00789e-07 
542.113 4.00868e-07 
542.644 4.00947e-07 
543.174 4.01026e-07 
543.704 4.01105e-07 
544.234 4.01184e-07 
544.765 4.01264e-07 
545.295 4.01343e-07 
545.825 4.01423e-07 
546.355 4.01502e-07 
546.886 4.01582e-07 
547.416 4.01662e-07 
547.946 4.01741e-07 
548.477 4.01821e-07 
549.007 4.01901e-07 
549.537 4.01981e-07 
550.067 4.02061e-07 
550.598 4.02141e-07 
551.128 4.02221e-07 
551.658 4.02302e-07 
552.188 4.02382e-07 
552.719 4.02463e-07 
553.249 4.02543e-07 
553.779 4.02623e-07 
554.31 4.02704e-07 
554.84 4.02785e-07 
555.37 4.02865e-07 
555.9 4.02946e-07 
556.431 4.03027e-07 
556.961 4.03108e-07 
557.491 4.03189e-07 
558.021 4.0327e-07 
558.552 4.03351e-07 
559.082 4.03432e-07 
559.612 4.03513e-07 
560.143 4.03595e-07 
560.673 4.03676e-07 
561.203 4.03757e-07 
561.733 4.03839e-07 
562.264 4.0392e-07 
562.794 4.04002e-07 
563.324 4.04084e-07 
563.854 4.04166e-07 
564.385 4.04248e-07 
564.915 4.0433e-07 
565.445 4.04412e-07 
565.976 4.04494e-07 
566.506 4.04576e-07 
567.036 4.04658e-07 
567.566 4.04741e-07 
568.097 4.04823e-07 
568.627 4.04906e-07 
569.157 4.04988e-07 
569.688 4.05071e-07 
570.218 4.05153e-07 
570.748 4.05236e-07 
571.278 4.05319e-07 
571.809 4.05402e-07 
572.339 4.05485e-07 
572.869 4.05568e-07 
573.399 4.05651e-07 
573.93 4.05734e-07 
574.46 4.05817e-07 
574.99 4.05901e-07 
575.521 4.05984e-07 
576.051 4.06067e-07 
576.581 4.06151e-07 
577.111 4.06234e-07 
577.642 4.06318e-07 
578.172 4.06402e-07 
578.702 4.06486e-07 
579.232 4.0657e-07 
579.763 4.06654e-07 
580.293 4.06738e-07 
580.823 4.06822e-07 
581.354 4.06906e-07 
581.884 4.0699e-07 
582.414 4.07075e-07 
582.944 4.07159e-07 
583.475 4.07244e-07 
584.005 4.07328e-07 
584.535 4.07413e-07 
585.065 4.07497e-07 
585.596 4.07582e-07 
586.126 4.07667e-07 
586.656 4.07752e-07 
587.187 4.07837e-07 
587.717 4.07922e-07 
588.247 4.08007e-07 
588.777 4.08093e-07 
589.308 4.08178e-07 
589.838 4.08263e-07 
590.368 4.08349e-07 
590.898 4.08434e-07 
591.429 4.0852e-07 
591.959 4.08606e-07 
592.489 4.08691e-07 
593.02 4.08777e-07 
593.55 4.08863e-07 
594.08 4.08949e-07 
594.61 4.09035e-07 
595.141 4.09121e-07 
595.671 4.09207e-07 
596.201 4.09294e-07 
596.731 4.0938e-07 
597.262 4.09467e-07 
597.792 4.09553e-07 
598.322 4.0964e-07 
598.853 4.09726e-07 
599.383 4.09813e-07 
599.913 4.099e-07 
600.443 4.09986e-07 
600.974 4.10074e-07 
601.504 4.10161e-07 
602.034 4.10248e-07 
602.564 4.10335e-07 
603.095 4.10422e-07 
603.625 4.1051e-07 
604.155 4.10597e-07 
604.686 4.10685e-07 
605.216 4.10772e-07 
605.746 4.1086e-07 
606.276 4.10948e-07 
606.807 4.11036e-07 
607.337 4.11124e-07 
607.867 4.11211e-07 
608.397 4.11299e-07 
608.928 4.11388e-07 
609.458 4.11476e-07 
609.988 4.11564e-07 
610.519 4.11653e-07 
611.049 4.11741e-07 
611.579 4.11829e-07 
612.109 4.11918e-07 
612.64 4.12007e-07 
613.17 4.12095e-07 
613.7 4.12184e-07 
614.23 4.12273e-07 
614.761 4.12362e-07 
615.291 4.12451e-07 
615.821 4.12541e-07 
616.352 4.1263e-07 
616.882 4.12719e-07 
617.412 4.12809e-07 
617.942 4.12898e-07 
618.473 4.12988e-07 
619.003 4.13077e-07 
619.533 4.13167e-07 
620.063 4.13257e-07 
620.594 4.13347e-07 
621.124 4.13437e-07 
621.654 4.13527e-07 
622.185 4.13617e-07 
622.715 4.13707e-07 
623.245 4.13797e-07 
623.775 4.13888e-07 
624.306 4.13978e-07 
624.836 4.14069e-07 
625.366 4.14159e-07 
625.896 4.1425e-07 
626.427 4.14341e-07 
626.957 4.14432e-07 
627.487 4.14523e-07 
628.018 4.14614e-07 
628.548 4.14705e-07 
629.078 4.14796e-07 
629.608 4.14887e-07 
630.139 4.14979e-07 
630.669 4.1507e-07 
631.199 4.15162e-07 
631.729 4.15253e-07 
632.26 4.15345e-07 
632.79 4.15437e-07 
633.32 4.15529e-07 
633.851 4.15621e-07 
634.381 4.15713e-07 
634.911 4.15804e-07 
635.441 4.15897e-07 
635.972 4.15989e-07 
636.502 4.16082e-07 
637.032 4.16174e-07 
637.562 4.16267e-07 
638.093 4.16359e-07 
638.623 4.16452e-07 
639.153 4.16545e-07 
639.684 4.16638e-07 
640.214 4.1673e-07 
640.744 4.16823e-07 
641.274 4.16916e-07 
641.805 4.1701e-07 
642.335 4.17103e-07 
642.865 4.17196e-07 
643.396 4.1729e-07 
643.926 4.17383e-07 
644.456 4.17477e-07 
644.986 4.17571e-07 
645.517 4.17665e-07 
646.047 4.17758e-07 
646.577 4.17852e-07 
647.107 4.17946e-07 
647.638 4.18041e-07 
648.168 4.18135e-07 
648.698 4.18229e-07 
649.229 4.18324e-07 
649.759 4.18418e-07 
650.289 4.18513e-07 
650.819 4.18607e-07 
651.35 4.18702e-07 
651.88 4.18797e-07 
652.41 4.18892e-07 
652.94 4.18987e-07 
653.471 4.19082e-07 
654.001 4.19177e-07 
654.531 4.19273e-07 
655.062 4.19368e-07 
655.592 4.19463e-07 
656.122 4.19559e-07 
656.652 4.19655e-07 
657.183 4.19751e-07 
657.713 4.19846e-07 
658.243 4.19942e-07 
658.773 4.20038e-07 
659.304 4.20134e-07 
659.834 4.2023e-07 
660.364 4.20327e-07 
660.895 4.20423e-07 
661.425 4.20519e-07 
661.955 4.20616e-07 
662.485 4.20713e-07 
663.016 4.20809e-07 
663.546 4.20906e-07 
664.076 4.21003e-07 
664.606 4.211e-07 
665.137 4.21197e-07 
665.667 4.21294e-07 
666.197 4.21392e-07 
666.728 4.21489e-07 
667.258 4.21586e-07 
667.788 4.21684e-07 
668.318 4.21781e-07 
668.849 4.21879e-07 
669.379 4.21977e-07 
669.909 4.22075e-07 
670.439 4.22172e-07 
670.97 4.22271e-07 
671.5 4.22369e-07 
672.03 4.22467e-07 
672.561 4.22566e-07 
673.091 4.22664e-07 
673.621 4.22763e-07 
674.151 4.22861e-07 
674.682 4.2296e-07 
675.212 4.23059e-07 
675.742 4.23157e-07 
676.272 4.23256e-07 
676.803 4.23355e-07 
677.333 4.23455e-07 
677.863 4.23554e-07 
678.394 4.23653e-07 
678.924 4.23753e-07 
679.454 4.23852e-07 
679.984 4.23952e-07 
680.515 4.24052e-07 
681.045 4.24152e-07 
681.575 4.24252e-07 
682.105 4.24352e-07 
682.636 4.24452e-07 
683.166 4.24552e-07 
683.696 4.24652e-07 
684.227 4.24753e-07 
684.757 4.24853e-07 
685.287 4.24954e-07 
685.817 4.25055e-07 
686.348 4.25156e-07 
686.878 4.25256e-07 
687.408 4.25357e-07 
687.938 4.25458e-07 
688.469 4.25559e-07 
688.999 4.25661e-07 
689.529 4.25762e-07 
690.06 4.25864e-07 
690.59 4.25965e-07 
691.12 4.26067e-07 
691.65 4.26169e-07 
692.181 4.26271e-07 
692.711 4.26372e-07 
693.241 4.26475e-07 
693.771 4.26577e-07 
694.302 4.26679e-07 
694.832 4.26781e-07 
695.362 4.26884e-07 
695.893 4.26986e-07 
696.423 4.27089e-07 
696.953 4.27192e-07 
697.483 4.27294e-07 
698.014 4.27397e-07 
698.544 4.275e-07 
699.074 4.27604e-07 
699.604 4.27707e-07 
700.135 4.2781e-07 
700.665 4.27913e-07 
701.195 4.28017e-07 
701.726 4.2812e-07 
702.256 4.28224e-07 
702.786 4.28328e-07 
703.316 4.28432e-07 
703.847 4.28536e-07 
704.377 4.2864e-07 
704.907 4.28745e-07 
705.438 4.28849e-07 
705.968 4.28953e-07 
706.498 4.29058e-07 
707.028 4.29163e-07 
707.559 4.29267e-07 
708.089 4.29372e-07 
708.619 4.29477e-07 
709.149 4.29582e-07 
709.68 4.29687e-07 
710.21 4.29792e-07 
710.74 4.29898e-07 
711.271 4.30003e-07 
711.801 4.30109e-07 
712.331 4.30215e-07 
712.861 4.3032e-07 
713.392 4.30426e-07 
713.922 4.30532e-07 
714.452 4.30638e-07 
714.982 4.30744e-07 
715.513 4.3085e-07 
716.043 4.30957e-07 
716.573 4.31064e-07 
717.104 4.3117e-07 
717.634 4.31277e-07 
718.164 4.31384e-07 
718.694 4.3149e-07 
719.225 4.31597e-07 
719.755 4.31705e-07 
720.285 4.31812e-07 
720.815 4.31919e-07 
721.346 4.32026e-07 
721.876 4.32134e-07 
722.406 4.32242e-07 
722.937 4.3235e-07 
723.467 4.32458e-07 
723.997 4.32566e-07 
724.527 4.32674e-07 
725.058 4.32782e-07 
725.588 4.3289e-07 
726.118 4.32998e-07 
726.648 4.33107e-07 
727.179 4.33215e-07 
727.709 4.33324e-07 
728.239 4.33433e-07 
728.77 4.33542e-07 
729.3 4.33651e-07 
729.83 4.3376e-07 
730.36 4.33869e-07 
730.891 4.33979e-07 
731.421 4.34088e-07 
731.951 4.34198e-07 
732.481 4.34307e-07 
733.012 4.34417e-07 
733.542 4.34527e-07 
734.072 4.34637e-07 
734.603 4.34747e-07 
735.133 4.34858e-07 
735.663 4.34968e-07 
736.193 4.35078e-07 
736.724 4.35189e-07 
737.254 4.353e-07 
737.784 4.35411e-07 
738.314 4.35521e-07 
738.845 4.35633e-07 
739.375 4.35744e-07 
739.905 4.35855e-07 
740.436 4.35966e-07 
740.966 4.36077e-07 
741.496 4.36189e-07 
742.026 4.36301e-07 
742.557 4.36413e-07 
743.087 4.36524e-07 
743.617 4.36636e-07 
744.147 4.36749e-07 
744.678 4.36861e-07 
745.208 4.36973e-07 
745.738 4.37086e-07 
746.269 4.37199e-07 
746.799 4.37311e-07 
747.329 4.37424e-07 
747.859 4.37537e-07 
748.39 4.3765e-07 
748.92 4.37763e-07 
749.45 4.37876e-07 
749.98 4.3799e-07 
750.511 4.38103e-07 
751.041 4.38217e-07 
751.571 4.38331e-07 
752.102 4.38445e-07 
752.632 4.38559e-07 
753.162 4.38673e-07 
753.692 4.38787e-07 
754.223 4.38901e-07 
754.753 4.39016e-07 
755.283 4.3913e-07 
755.813 4.39245e-07 
756.344 4.3936e-07 
756.874 4.39475e-07 
757.404 4.3959e-07 
757.935 4.39705e-07 
758.465 4.3982e-07 
758.995 4.39936e-07 
759.525 4.40051e-07 
760.056 4.40167e-07 
760.586 4.40282e-07 
761.116 4.40398e-07 
761.646 4.40514e-07 
762.177 4.4063e-07 
762.707 4.40747e-07 
763.237 4.40863e-07 
763.768 4.40979e-07 
764.298 4.41096e-07 
764.828 4.41213e-07 
765.358 4.4133e-07 
765.889 4.41447e-07 
766.419 4.41564e-07 
766.949 4.41681e-07 
767.479 4.41798e-07 
768.01 4.41916e-07 
768.54 4.42033e-07 
769.07 4.42151e-07 
769.601 4.42269e-07 
770.131 4.42387e-07 
770.661 4.42505e-07 
771.191 4.42623e-07 
771.722 4.42741e-07 
772.252 4.4286e-07 
772.782 4.42978e-07 
773.312 4.43097e-07 
773.843 4.43216e-07 
774.373 4.43335e-07 
774.903 4.43454e-07 
775.434 4.43573e-07 
775.964 4.43692e-07 
776.494 4.43811e-07 
777.024 4.43931e-07 
777.555 4.44051e-07 
778.085 4.44171e-07 
778.615 4.44291e-07 
779.146 4.44411e-07 
779.676 4.44531e-07 
780.206 4.44651e-07 
780.736 4.44772e-07 
781.267 4.44892e-07 
781.797 4.45013e-07 
782.327 4.45134e-07 
782.857 4.45255e-07 
783.388 4.45376e-07 
783.918 4.45497e-07 
784.448 4.45619e-07 
784.979 4.4574e-07 
785.509 4.45861e-07 
786.039 4.45983e-07 
786.569 4.46105e-07 
787.1 4.46227e-07 
787.63 4.46349e-07 
788.16 4.46472e-07 
788.69 4.46594e-07 
789.221 4.46717e-07 
789.751 4.46839e-07 
790.281 4.46962e-07 
790.812 4.47085e-07 
791.342 4.47208e-07 
791.872 4.47331e-07 
792.402 4.47454e-07 
792.933 4.47578e-07 
793.463 4.47701e-07 
793.993 4.47825e-07 
794.523 4.47949e-07 
795.054 4.48073e-07 
795.584 4.48197e-07 
796.114 4.48321e-07 
796.645 4.48446e-07 
797.175 4.4857e-07 
797.705 4.48695e-07 
798.235 4.4882e-07 
798.766 4.48945e-07 
799.296 4.4907e-07 
799.826 4.49195e-07 
800.356 4.4932e-07 
800.887 4.49446e-07 
801.417 4.49571e-07 
801.947 4.49697e-07 
802.478 4.49823e-07 
803.008 4.49949e-07 
803.538 4.50075e-07 
804.068 4.50202e-07 
804.599 4.50328e-07 
805.129 4.50455e-07 
805.659 4.50581e-07 
806.189 4.50709e-07 
806.72 4.50835e-07 
807.25 4.50963e-07 
807.78 4.5109e-07 
808.311 4.51217e-07 
808.841 4.51345e-07 
809.371 4.51472e-07 
809.901 4.516e-07 
810.432 4.51729e-07 
810.962 4.51857e-07 
811.492 4.51985e-07 
812.022 4.52113e-07 
812.553 4.52242e-07 
813.083 4.52371e-07 
813.613 4.52499e-07 
814.144 4.52628e-07 
814.674 4.52758e-07 
815.204 4.52887e-07 
815.734 4.53016e-07 
816.265 4.53146e-07 
816.795 4.53276e-07 
817.325 4.53405e-07 
817.855 4.53535e-07 
818.386 4.53666e-07 
818.916 4.53796e-07 
819.446 4.53926e-07 
819.977 4.54057e-07 
820.507 4.54188e-07 
821.037 4.54319e-07 
821.567 4.5445e-07 
822.098 4.54581e-07 
822.628 4.54712e-07 
823.158 4.54843e-07 
823.688 4.54975e-07 
824.219 4.55107e-07 
824.749 4.55239e-07 
825.279 4.55371e-07 
825.81 4.55503e-07 
826.34 4.55636e-07 
826.87 4.55768e-07 
827.4 4.55901e-07 
827.931 4.56034e-07 
828.461 4.56167e-07 
828.991 4.563e-07 
829.521 4.56433e-07 
830.052 4.56567e-07 
830.582 4.567e-07 
831.112 4.56834e-07 
831.643 4.56968e-07 
832.173 4.57102e-07 
832.703 4.57236e-07 
833.233 4.57371e-07 
833.764 4.57505e-07 
834.294 4.5764e-07 
834.824 4.57775e-07 
835.354 4.5791e-07 
835.885 4.58045e-07 
836.415 4.5818e-07 
836.945 4.58316e-07 
837.476 4.58451e-07 
838.006 4.58587e-07 
838.536 4.58723e-07 
839.066 4.58859e-07 
839.597 4.58995e-07 
840.127 4.59132e-07 
840.657 4.59268e-07 
841.188 4.59405e-07 
841.718 4.59542e-07 
842.248 4.59679e-07 
842.778 4.59816e-07 
843.309 4.59954e-07 
843.839 4.60091e-07 
844.369 4.60229e-07 
844.899 4.60367e-07 
845.43 4.60505e-07 
845.96 4.60643e-07 
846.49 4.60781e-07 
847.021 4.6092e-07 
847.551 4.61058e-07 
848.081 4.61198e-07 
848.611 4.61336e-07 
849.142 4.61476e-07 
849.672 4.61615e-07 
850.202 4.61754e-07 
850.732 4.61894e-07 
851.263 4.62034e-07 
851.793 4.62174e-07 
852.323 4.62314e-07 
852.854 4.62454e-07 
853.384 4.62595e-07 
853.914 4.62736e-07 
854.444 4.62876e-07 
854.975 4.63018e-07 
855.505 4.63158e-07 
856.035 4.633e-07 
856.565 4.63441e-07 
857.096 4.63583e-07 
857.626 4.63725e-07 
858.156 4.63867e-07 
858.687 4.64009e-07 
859.217 4.64152e-07 
859.747 4.64294e-07 
860.277 4.64437e-07 
860.808 4.64579e-07 
861.338 4.64723e-07 
861.868 4.64866e-07 
862.398 4.65009e-07 
862.929 4.65153e-07 
863.459 4.65297e-07 
863.989 4.65441e-07 
864.52 4.65585e-07 
865.05 4.65729e-07 
865.58 4.65874e-07 
866.11 4.66018e-07 
866.641 4.66163e-07 
867.171 4.66308e-07 
867.701 4.66453e-07 
868.231 4.66598e-07 
868.762 4.66744e-07 
869.292 4.6689e-07 
869.822 4.67035e-07 
870.353 4.67182e-07 
870.883 4.67328e-07 
871.413 4.67474e-07 
871.943 4.67621e-07 
872.474 4.67768e-07 
873.004 4.67914e-07 
873.534 4.68062e-07 
874.064 4.68209e-07 
874.595 4.68356e-07 
875.125 4.68504e-07 
875.655 4.68652e-07 
876.186 4.688e-07 
876.716 4.68948e-07 
877.246 4.69097e-07 
877.776 4.69245e-07 
878.307 4.69394e-07 
878.837 4.69543e-07 
879.367 4.69692e-07 
879.897 4.69842e-07 
880.428 4.69991e-07 
880.958 4.70141e-07 
881.488 4.70291e-07 
882.019 4.70441e-07 
882.549 4.70591e-07 
883.079 4.70742e-07 
883.609 4.70892e-07 
884.14 4.71043e-07 
884.67 4.71194e-07 
885.2 4.71345e-07 
885.73 4.71497e-07 
886.261 4.71649e-07 
886.791 4.718e-07 
887.321 4.71952e-07 
887.852 4.72104e-07 
888.382 4.72257e-07 
888.912 4.72409e-07 
889.442 4.72562e-07 
889.973 4.72715e-07 
890.503 4.72868e-07 
891.033 4.73022e-07 
891.563 4.73175e-07 
892.094 4.73329e-07 
892.624 4.73483e-07 
893.154 4.73637e-07 
893.685 4.73792e-07 
894.215 4.73946e-07 
894.745 4.74101e-07 
895.275 4.74256e-07 
895.806 4.74411e-07 
896.336 4.74566e-07 
896.866 4.74722e-07 
897.396 4.74878e-07 
897.927 4.75034e-07 
898.457 4.7519e-07 
898.987 4.75346e-07 
899.518 4.75503e-07 
900.048 4.75659e-07 
900.578 4.75817e-07 
901.108 4.75973e-07 
901.639 4.76131e-07 
902.169 4.76289e-07 
902.699 4.76446e-07 
903.229 4.76604e-07 
903.76 4.76762e-07 
904.29 4.76921e-07 
904.82 4.77079e-07 
905.351 4.77238e-07 
905.881 4.77397e-07 
906.411 4.77557e-07 
906.941 4.77716e-07 
907.472 4.77876e-07 
908.002 4.78035e-07 
908.532 4.78196e-07 
909.062 4.78356e-07 
