#energy geo_1 
400 4.78634e-06 
400.53 4.78927e-06 
401.061 4.79221e-06 
401.591 4.79515e-06 
402.121 4.79809e-06 
402.651 4.80104e-06 
403.182 4.804e-06 
403.712 4.80696e-06 
404.242 4.80995e-06 
404.772 4.81295e-06 
405.303 4.81598e-06 
405.833 4.81904e-06 
406.363 4.82214e-06 
406.894 4.82529e-06 
407.424 4.8285e-06 
407.954 4.83178e-06 
408.484 4.83515e-06 
409.015 4.83864e-06 
409.545 4.84225e-06 
410.075 4.84603e-06 
410.605 4.85e-06 
411.136 4.8542e-06 
411.666 4.85869e-06 
412.196 4.86353e-06 
412.727 4.86879e-06 
413.257 4.87458e-06 
413.787 4.881e-06 
414.317 4.88822e-06 
414.848 4.89643e-06 
415.378 4.90588e-06 
415.908 4.91688e-06 
416.438 4.92983e-06 
416.969 4.94527e-06 
417.499 4.96383e-06 
418.029 4.98627e-06 
418.56 5.01345e-06 
419.09 5.04611e-06 
419.62 5.08447e-06 
420.15 5.12747e-06 
420.681 5.17161e-06 
421.211 5.21019e-06 
421.741 5.23454e-06 
422.271 5.23825e-06 
422.802 5.22151e-06 
423.332 5.19103e-06 
423.862 5.15564e-06 
424.393 5.12215e-06 
424.923 5.09421e-06 
425.453 5.07317e-06 
425.983 5.05915e-06 
426.514 5.05185e-06 
427.044 5.05097e-06 
427.574 5.05633e-06 
428.104 5.0678e-06 
428.635 5.08499e-06 
429.165 5.10671e-06 
429.695 5.13015e-06 
430.226 5.15038e-06 
430.756 5.16122e-06 
431.286 5.15817e-06 
431.816 5.14134e-06 
432.347 5.11526e-06 
432.877 5.08582e-06 
433.407 5.05746e-06 
433.938 5.03247e-06 
434.468 5.01151e-06 
434.998 4.99438e-06 
435.528 4.98057e-06 
436.059 4.96948e-06 
436.589 4.9606e-06 
437.119 4.9535e-06 
437.649 4.94784e-06 
438.18 4.94336e-06 
438.71 4.93986e-06 
439.24 4.93721e-06 
439.771 4.9353e-06 
440.301 4.93409e-06 
440.831 4.93353e-06 
441.361 4.93362e-06 
441.892 4.93439e-06 
442.422 4.9359e-06 
442.952 4.9382e-06 
443.482 4.94142e-06 
444.013 4.94568e-06 
444.543 4.95117e-06 
445.073 4.9581e-06 
445.604 4.96675e-06 
446.134 4.97748e-06 
446.664 4.99071e-06 
447.194 5.007e-06 
447.725 5.02703e-06 
448.255 5.05167e-06 
448.785 5.08202e-06 
449.315 5.1195e-06 
449.846 5.16593e-06 
450.376 5.22362e-06 
450.906 5.29553e-06 
451.437 5.38534e-06 
451.967 5.4975e-06 
452.497 5.63694e-06 
453.027 5.8082e-06 
453.558 6.01309e-06 
454.088 6.24648e-06 
454.618 6.48974e-06 
455.148 6.70571e-06 
455.679 6.84433e-06 
456.209 6.86514e-06 
456.739 6.76424e-06 
457.27 6.57745e-06 
457.8 6.35604e-06 
458.33 6.14185e-06 
458.86 5.95848e-06 
459.391 5.81511e-06 
459.921 5.7131e-06 
460.451 5.65086e-06 
460.981 5.62652e-06 
461.512 5.63888e-06 
462.042 5.68711e-06 
462.572 5.76925e-06 
463.103 5.87912e-06 
463.633 6.00178e-06 
464.163 6.11021e-06 
464.693 6.16912e-06 
465.224 6.15061e-06 
465.754 6.05188e-06 
466.284 5.89667e-06 
466.814 5.71871e-06 
467.345 5.54491e-06 
467.875 5.38982e-06 
468.405 5.25817e-06 
468.936 5.14928e-06 
469.466 5.06024e-06 
469.996 4.98769e-06 
470.526 4.92852e-06 
471.057 4.88014e-06 
471.587 4.8405e-06 
472.117 4.80797e-06 
472.647 4.78134e-06 
473.178 4.75967e-06 
473.708 4.74228e-06 
474.238 4.72869e-06 
474.769 4.7186e-06 
475.299 4.71185e-06 
475.829 4.70844e-06 
476.359 4.70851e-06 
476.89 4.71236e-06 
477.42 4.72046e-06 
477.95 4.73349e-06 
478.48 4.75231e-06 
479.011 4.7779e-06 
479.541 4.81119e-06 
480.071 4.85255e-06 
480.602 4.90089e-06 
481.132 4.9523e-06 
481.662 4.99908e-06 
482.192 5.03098e-06 
482.723 5.04e-06 
483.253 5.02593e-06 
483.783 4.99677e-06 
484.313 4.96369e-06 
484.844 4.93602e-06 
485.374 4.91952e-06 
485.904 4.9172e-06 
486.435 4.93074e-06 
486.965 4.96135e-06 
487.495 5.01012e-06 
488.025 5.07746e-06 
488.556 5.16171e-06 
489.086 5.25675e-06 
489.616 5.34974e-06 
490.146 5.42158e-06 
490.677 5.45325e-06 
491.207 5.43526e-06 
491.737 5.3726e-06 
492.268 5.2811e-06 
492.798 5.17946e-06 
493.328 5.08262e-06 
493.858 4.99936e-06 
494.389 4.9332e-06 
494.919 4.88462e-06 
495.449 4.8528e-06 
495.979 4.83669e-06 
496.51 4.83526e-06 
497.04 4.84723e-06 
497.57 4.87022e-06 
498.101 4.89937e-06 
498.631 4.92627e-06 
499.161 4.93993e-06 
499.691 4.93137e-06 
500.222 4.89903e-06 
500.752 4.84959e-06 
501.282 4.79314e-06 
501.812 4.73799e-06 
502.343 4.68873e-06 
502.873 4.64691e-06 
503.403 4.61235e-06 
503.934 4.58415e-06 
504.464 4.56122e-06 
504.994 4.54258e-06 
505.524 4.52738e-06 
506.055 4.51495e-06 
506.585 4.50474e-06 
507.115 4.49633e-06 
507.646 4.48939e-06 
508.176 4.48366e-06 
508.706 4.47892e-06 
509.236 4.475e-06 
509.767 4.47178e-06 
510.297 4.46914e-06 
510.827 4.46699e-06 
511.357 4.46525e-06 
511.888 4.46387e-06 
512.418 4.46279e-06 
512.948 4.46196e-06 
513.479 4.46135e-06 
514.009 4.46092e-06 
514.539 4.46065e-06 
515.069 4.4605e-06 
515.6 4.46046e-06 
516.13 4.4605e-06 
516.66 4.46061e-06 
517.19 4.46077e-06 
517.721 4.46096e-06 
518.251 4.46116e-06 
518.781 4.46137e-06 
519.312 4.46157e-06 
519.842 4.46175e-06 
520.372 4.4619e-06 
520.902 4.462e-06 
521.433 4.46205e-06 
521.963 4.46204e-06 
522.493 4.46195e-06 
523.023 4.46179e-06 
523.554 4.46153e-06 
524.084 4.46117e-06 
524.614 4.46071e-06 
525.145 4.46014e-06 
525.675 4.45944e-06 
526.205 4.45862e-06 
526.735 4.45768e-06 
527.266 4.4566e-06 
527.796 4.45538e-06 
528.326 4.45403e-06 
528.856 4.45254e-06 
529.387 4.45091e-06 
529.917 4.44915e-06 
530.447 4.44726e-06 
530.978 4.44524e-06 
531.508 4.44311e-06 
532.038 4.44089e-06 
532.568 4.43858e-06 
533.099 4.43621e-06 
533.629 4.43381e-06 
534.159 4.43142e-06 
534.689 4.42907e-06 
535.22 4.42683e-06 
535.75 4.42477e-06 
536.28 4.42297e-06 
536.811 4.42155e-06 
537.341 4.42066e-06 
537.871 4.42048e-06 
538.401 4.42129e-06 
538.932 4.4234e-06 
539.462 4.42728e-06 
539.992 4.43361e-06 
540.522 4.44332e-06 
541.053 4.4578e-06 
541.583 4.4792e-06 
542.113 4.51093e-06 
542.644 4.55872e-06 
543.174 4.63275e-06 
543.704 4.75246e-06 
544.234 4.95849e-06 
544.765 5.34557e-06 
545.295 6.16342e-06 
545.825 8.09135e-06 
546.355 1.15454e-05 
546.886 1.09732e-05 
547.416 7.88453e-06 
547.946 6.09217e-06 
548.477 5.30393e-06 
549.007 4.92841e-06 
549.537 4.72773e-06 
550.067 4.61109e-06 
550.598 4.53969e-06 
551.128 4.49513e-06 
551.658 4.46798e-06 
552.188 4.45319e-06 
552.719 4.44804e-06 
553.249 4.45113e-06 
553.779 4.46178e-06 
554.31 4.47955e-06 
554.84 4.50359e-06 
555.37 4.53181e-06 
555.9 4.55985e-06 
556.431 4.58108e-06 
556.961 4.5886e-06 
557.491 4.57904e-06 
558.021 4.55486e-06 
558.552 4.52243e-06 
559.082 4.48823e-06 
559.612 4.45656e-06 
560.143 4.42934e-06 
560.673 4.40691e-06 
561.203 4.38886e-06 
561.733 4.37452e-06 
562.264 4.3632e-06 
562.794 4.35432e-06 
563.324 4.34739e-06 
563.854 4.342e-06 
564.385 4.33787e-06 
564.915 4.33476e-06 
565.445 4.33246e-06 
565.976 4.33084e-06 
566.506 4.32978e-06 
567.036 4.32919e-06 
567.566 4.32899e-06 
568.097 4.32913e-06 
568.627 4.32955e-06 
569.157 4.33021e-06 
569.688 4.33108e-06 
570.218 4.33214e-06 
570.748 4.33335e-06 
571.278 4.3347e-06 
571.809 4.33618e-06 
572.339 4.33777e-06 
572.869 4.33946e-06 
573.399 4.34123e-06 
573.93 4.34308e-06 
574.46 4.34501e-06 
574.99 4.34699e-06 
575.521 4.34903e-06 
576.051 4.35113e-06 
576.581 4.35327e-06 
577.111 4.35546e-06 
577.642 4.35769e-06 
578.172 4.35995e-06 
578.702 4.36225e-06 
579.232 4.36458e-06 
579.763 4.36694e-06 
580.293 4.36933e-06 
580.823 4.37174e-06 
581.354 4.37418e-06 
581.884 4.37664e-06 
582.414 4.37913e-06 
582.944 4.38164e-06 
583.475 4.38417e-06 
584.005 4.38672e-06 
584.535 4.3893e-06 
585.065 4.39189e-06 
585.596 4.39451e-06 
586.126 4.39716e-06 
586.656 4.39983e-06 
587.187 4.40254e-06 
587.717 4.40527e-06 
588.247 4.40804e-06 
588.777 4.41085e-06 
589.308 4.41371e-06 
589.838 4.41662e-06 
590.368 4.41959e-06 
590.898 4.42264e-06 
591.429 4.42577e-06 
591.959 4.42899e-06 
592.489 4.43234e-06 
593.02 4.43583e-06 
593.55 4.4395e-06 
594.08 4.44337e-06 
594.61 4.4475e-06 
595.141 4.45194e-06 
595.671 4.45677e-06 
596.201 4.46209e-06 
596.731 4.46803e-06 
597.262 4.47472e-06 
597.792 4.48239e-06 
598.322 4.49128e-06 
598.853 4.5017e-06 
599.383 4.514e-06 
599.913 4.52851e-06 
600.443 4.54542e-06 
600.974 4.56444e-06 
601.504 4.58445e-06 
602.034 4.603e-06 
602.564 4.61657e-06 
603.095 4.62196e-06 
603.625 4.61825e-06 
604.155 4.60742e-06 
604.686 4.59299e-06 
605.216 4.57815e-06 
605.746 4.56484e-06 
606.276 4.55384e-06 
606.807 4.5452e-06 
607.337 4.53871e-06 
607.867 4.534e-06 
608.397 4.53076e-06 
608.928 4.52871e-06 
609.458 4.52763e-06 
609.988 4.52733e-06 
610.519 4.5277e-06 
611.049 4.52865e-06 
611.579 4.53009e-06 
612.109 4.532e-06 
612.64 4.53434e-06 
613.17 4.53711e-06 
613.7 4.54032e-06 
614.23 4.544e-06 
614.761 4.54819e-06 
615.291 4.55295e-06 
615.821 4.55836e-06 
616.352 4.56454e-06 
616.882 4.57163e-06 
617.412 4.57981e-06 
617.942 4.58933e-06 
618.473 4.60048e-06 
619.003 4.61366e-06 
619.533 4.62938e-06 
620.063 4.64828e-06 
620.594 4.6712e-06 
621.124 4.69914e-06 
621.654 4.73331e-06 
622.185 4.77496e-06 
622.715 4.82504e-06 
623.245 4.88345e-06 
623.775 4.94764e-06 
624.306 5.01098e-06 
624.836 5.06218e-06 
625.366 5.08845e-06 
625.896 5.08227e-06 
626.427 5.04649e-06 
626.957 4.99218e-06 
627.487 4.93192e-06 
628.018 4.87465e-06 
628.548 4.82478e-06 
629.078 4.78345e-06 
629.608 4.75013e-06 
630.139 4.72367e-06 
630.669 4.70282e-06 
631.199 4.68646e-06 
631.729 4.67368e-06 
632.26 4.66374e-06 
632.79 4.65606e-06 
633.32 4.65019e-06 
633.851 4.64577e-06 
634.381 4.64252e-06 
634.911 4.64024e-06 
635.441 4.63874e-06 
635.972 4.63788e-06 
636.502 4.63756e-06 
637.032 4.63768e-06 
637.562 4.63816e-06 
638.093 4.63894e-06 
638.623 4.63997e-06 
639.153 4.6412e-06 
639.684 4.6426e-06 
640.214 4.64413e-06 
640.744 4.64576e-06 
641.274 4.64747e-06 
641.805 4.64924e-06 
642.335 4.65103e-06 
642.865 4.65284e-06 
643.396 4.65464e-06 
643.926 4.65643e-06 
644.456 4.65818e-06 
644.986 4.65988e-06 
645.517 4.66152e-06 
646.047 4.66308e-06 
646.577 4.66455e-06 
647.107 4.66592e-06 
647.638 4.66718e-06 
648.168 4.66831e-06 
648.698 4.66931e-06 
649.229 4.67016e-06 
649.759 4.67086e-06 
650.289 4.67139e-06 
650.819 4.67175e-06 
651.35 4.67192e-06 
651.88 4.67192e-06 
652.41 4.67172e-06 
652.94 4.67132e-06 
653.471 4.67071e-06 
654.001 4.66991e-06 
654.531 4.6689e-06 
655.062 4.66768e-06 
655.592 4.66627e-06 
656.122 4.66467e-06 
656.652 4.66288e-06 
657.183 4.66093e-06 
657.713 4.65884e-06 
658.243 4.65662e-06 
658.773 4.65431e-06 
659.304 4.65195e-06 
659.834 4.6496e-06 
660.364 4.6473e-06 
660.895 4.64514e-06 
661.425 4.64322e-06 
661.955 4.64166e-06 
662.485 4.6406e-06 
663.016 4.64024e-06 
663.546 4.64082e-06 
664.076 4.64263e-06 
664.606 4.64607e-06 
665.137 4.65164e-06 
665.667 4.66001e-06 
666.197 4.67204e-06 
666.728 4.68886e-06 
667.258 4.71204e-06 
667.788 4.74359e-06 
668.318 4.78623e-06 
668.849 4.84354e-06 
669.379 4.9203e-06 
669.909 5.02322e-06 
670.439 5.16332e-06 
670.97 5.36315e-06 
671.5 5.67658e-06 
672.03 6.2412e-06 
672.561 7.42878e-06 
673.091 1.02403e-05 
673.621 1.51843e-05 
674.151 1.47485e-05 
674.682 1.03714e-05 
675.212 7.4038e-06 
675.742 6.08242e-06 
676.272 5.45307e-06 
676.803 5.11327e-06 
677.333 4.91073e-06 
677.863 4.78087e-06 
678.394 4.69304e-06 
678.924 4.6312e-06 
679.454 4.58636e-06 
679.984 4.55317e-06 
680.515 4.52828e-06 
681.045 4.50951e-06 
681.575 4.49543e-06 
682.105 4.48506e-06 
682.636 4.47774e-06 
683.166 4.47303e-06 
683.696 4.47065e-06 
684.227 4.47047e-06 
684.757 4.47245e-06 
685.287 4.47668e-06 
685.817 4.48333e-06 
686.348 4.4927e-06 
686.878 4.50526e-06 
687.408 4.52159e-06 
687.938 4.54254e-06 
688.469 4.56919e-06 
688.999 4.60293e-06 
689.529 4.64555e-06 
690.06 4.69913e-06 
690.59 4.76597e-06 
691.12 4.84792e-06 
691.65 4.94522e-06 
692.181 5.05416e-06 
692.711 5.16396e-06 
693.241 5.25527e-06 
693.771 5.3045e-06 
694.302 5.29531e-06 
694.832 5.22928e-06 
695.362 5.12471e-06 
695.893 5.00488e-06 
696.423 4.88772e-06 
696.953 4.78273e-06 
697.483 4.69288e-06 
698.014 4.61761e-06 
698.544 4.5549e-06 
699.074 4.50243e-06 
699.604 4.4581e-06 
700.135 4.42014e-06 
700.665 4.38713e-06 
701.195 4.35794e-06 
701.726 4.33172e-06 
702.256 4.3078e-06 
702.786 4.28563e-06 
703.316 4.26481e-06 
703.847 4.24505e-06 
704.377 4.22611e-06 
704.907 4.20779e-06 
705.438 4.18998e-06 
705.968 4.17262e-06 
706.498 4.15563e-06 
707.028 4.13899e-06 
707.559 4.12278e-06 
708.089 4.10707e-06 
708.619 4.09196e-06 
709.149 4.07761e-06 
709.68 4.06429e-06 
710.21 4.0523e-06 
710.74 4.04204e-06 
711.271 4.03407e-06 
711.801 4.02916e-06 
712.331 4.02828e-06 
712.861 4.0328e-06 
713.392 4.04464e-06 
713.922 4.06656e-06 
714.452 4.10255e-06 
714.982 4.1587e-06 
715.513 4.24465e-06 
716.043 4.37623e-06 
716.573 4.58104e-06 
717.104 4.91055e-06 
717.634 5.46912e-06 
718.164 6.49157e-06 
718.694 8.57481e-06 
719.225 1.33629e-05 
719.755 2.34496e-05 
720.285 2.77005e-05 
720.815 1.94227e-05 
721.346 1.14167e-05 
721.876 7.69183e-06 
722.406 6.00328e-06 
722.937 5.13841e-06 
723.467 4.64751e-06 
723.997 4.34839e-06 
724.527 4.15817e-06 
725.058 4.03541e-06 
725.588 3.95769e-06 
726.118 3.91173e-06 
726.648 3.88829e-06 
727.179 3.87894e-06 
727.709 3.87436e-06 
728.239 3.86491e-06 
728.77 3.8437e-06 
729.3 3.80982e-06 
729.83 3.76806e-06 
730.36 3.72533e-06 
730.891 3.68725e-06 
731.421 3.65695e-06 
731.951 3.6356e-06 
732.481 3.62316e-06 
733.012 3.61887e-06 
733.542 3.62127e-06 
734.072 3.62813e-06 
734.603 3.6367e-06 
735.133 3.64489e-06 
735.663 3.65269e-06 
736.193 3.66244e-06 
736.724 3.67764e-06 
737.254 3.70124e-06 
737.784 3.73421e-06 
738.314 3.77444e-06 
738.845 3.81554e-06 
739.375 3.84694e-06 
739.905 3.85712e-06 
740.436 3.83971e-06 
740.966 3.7976e-06 
741.496 3.74067e-06 
742.026 3.6798e-06 
742.557 3.62259e-06 
743.087 3.57265e-06 
743.617 3.53083e-06 
744.147 3.49651e-06 
744.678 3.46861e-06 
745.208 3.44596e-06 
745.738 3.42753e-06 
746.269 3.4125e-06 
746.799 3.40016e-06 
747.329 3.39e-06 
747.859 3.3816e-06 
748.39 3.37463e-06 
748.92 3.36883e-06 
749.45 3.364e-06 
749.98 3.35999e-06 
750.511 3.35665e-06 
751.041 3.35389e-06 
751.571 3.35162e-06 
752.102 3.34976e-06 
752.632 3.34828e-06 
753.162 3.3471e-06 
753.692 3.34621e-06 
754.223 3.34556e-06 
754.753 3.34512e-06 
755.283 3.34488e-06 
755.813 3.34481e-06 
756.344 3.3449e-06 
756.874 3.34513e-06 
757.404 3.34549e-06 
757.935 3.34598e-06 
758.465 3.34658e-06 
758.995 3.34729e-06 
759.525 3.34811e-06 
760.056 3.34903e-06 
760.586 3.35006e-06 
761.116 3.35119e-06 
761.646 3.35244e-06 
762.177 3.3538e-06 
762.707 3.35528e-06 
763.237 3.3569e-06 
763.768 3.35867e-06 
764.298 3.36061e-06 
764.828 3.36275e-06 
765.358 3.36512e-06 
765.889 3.36775e-06 
766.419 3.37071e-06 
766.949 3.37406e-06 
767.479 3.37788e-06 
768.01 3.38229e-06 
768.54 3.38744e-06 
769.07 3.3935e-06 
769.601 3.4007e-06 
770.131 3.40935e-06 
770.661 3.41976e-06 
771.191 3.4323e-06 
771.722 3.44723e-06 
772.252 3.46449e-06 
772.782 3.48333e-06 
773.312 3.50186e-06 
773.843 3.51691e-06 
774.373 3.52494e-06 
774.903 3.52392e-06 
775.434 3.51463e-06 
775.964 3.50017e-06 
776.494 3.48403e-06 
777.024 3.46872e-06 
777.555 3.45549e-06 
778.085 3.44466e-06 
778.615 3.4361e-06 
779.146 3.42948e-06 
779.676 3.42444e-06 
780.206 3.42068e-06 
780.736 3.41794e-06 
781.267 3.416e-06 
781.797 3.41472e-06 
782.327 3.41395e-06 
782.857 3.41361e-06 
783.388 3.41361e-06 
783.918 3.4139e-06 
784.448 3.41443e-06 
784.979 3.41516e-06 
785.509 3.41606e-06 
786.039 3.41712e-06 
786.569 3.41831e-06 
787.1 3.41963e-06 
787.63 3.42105e-06 
788.16 3.42258e-06 
788.69 3.42422e-06 
789.221 3.42596e-06 
789.751 3.4278e-06 
790.281 3.42976e-06 
790.812 3.43183e-06 
791.342 3.43402e-06 
791.872 3.43637e-06 
792.402 3.43887e-06 
792.933 3.44156e-06 
793.463 3.44447e-06 
793.993 3.44763e-06 
794.523 3.4511e-06 
795.054 3.45494e-06 
795.584 3.45923e-06 
796.114 3.46407e-06 
796.645 3.46959e-06 
797.175 3.47595e-06 
797.705 3.48338e-06 
798.235 3.49215e-06 
798.766 3.50259e-06 
799.296 3.51513e-06 
799.826 3.53025e-06 
800.356 3.54841e-06 
800.887 3.56988e-06 
801.417 3.59436e-06 
801.947 3.62038e-06 
802.478 3.64477e-06 
803.008 3.66282e-06 
803.538 3.67001e-06 
804.068 3.66469e-06 
804.599 3.64911e-06 
805.129 3.62797e-06 
805.659 3.60577e-06 
806.189 3.58542e-06 
806.72 3.56817e-06 
807.25 3.5542e-06 
807.78 3.54322e-06 
808.311 3.53475e-06 
808.841 3.52832e-06 
809.371 3.52352e-06 
809.901 3.52003e-06 
810.432 3.51757e-06 
810.962 3.51594e-06 
811.492 3.51498e-06 
812.022 3.51456e-06 
812.553 3.51459e-06 
813.083 3.51498e-06 
813.613 3.51567e-06 
814.144 3.51662e-06 
814.674 3.51778e-06 
815.204 3.51913e-06 
815.734 3.52064e-06 
816.265 3.52228e-06 
816.795 3.52404e-06 
817.325 3.5259e-06 
817.855 3.52786e-06 
818.386 3.52989e-06 
818.916 3.532e-06 
819.446 3.53417e-06 
819.977 3.5364e-06 
820.507 3.53868e-06 
821.037 3.54101e-06 
821.567 3.54339e-06 
822.098 3.5458e-06 
822.628 3.54825e-06 
823.158 3.55074e-06 
823.688 3.55326e-06 
824.219 3.55581e-06 
824.749 3.55838e-06 
825.279 3.56099e-06 
825.81 3.56362e-06 
826.34 3.56627e-06 
826.87 3.56895e-06 
827.4 3.57164e-06 
827.931 3.57436e-06 
828.461 3.5771e-06 
828.991 3.57985e-06 
829.521 3.58263e-06 
830.052 3.58542e-06 
830.582 3.58823e-06 
831.112 3.59105e-06 
831.643 3.59389e-06 
832.173 3.59674e-06 
832.703 3.59961e-06 
833.233 3.6025e-06 
833.764 3.60539e-06 
834.294 3.6083e-06 
834.824 3.61122e-06 
835.354 3.61415e-06 
835.885 3.6171e-06 
836.415 3.62005e-06 
836.945 3.62302e-06 
837.476 3.62599e-06 
838.006 3.62898e-06 
838.536 3.63197e-06 
839.066 3.63497e-06 
839.597 3.63798e-06 
840.127 3.641e-06 
840.657 3.64402e-06 
841.188 3.64706e-06 
841.718 3.6501e-06 
842.248 3.65314e-06 
842.778 3.65619e-06 
843.309 3.65924e-06 
843.839 3.66231e-06 
844.369 3.66537e-06 
844.899 3.66845e-06 
845.43 3.67152e-06 
845.96 3.6746e-06 
846.49 3.67769e-06 
847.021 3.68078e-06 
847.551 3.68388e-06 
848.081 3.68698e-06 
848.611 3.69008e-06 
849.142 3.69319e-06 
849.672 3.69631e-06 
850.202 3.69945e-06 
850.732 3.70258e-06 
851.263 3.70573e-06 
851.793 3.7089e-06 
852.323 3.71207e-06 
852.854 3.71527e-06 
853.384 3.71849e-06 
853.914 3.72174e-06 
854.444 3.72501e-06 
854.975 3.72833e-06 
855.505 3.73168e-06 
856.035 3.73509e-06 
856.565 3.73856e-06 
857.096 3.74209e-06 
857.626 3.74572e-06 
858.156 3.74944e-06 
858.687 3.75328e-06 
859.217 3.75725e-06 
859.747 3.7614e-06 
860.277 3.76573e-06 
860.808 3.77031e-06 
861.338 3.77516e-06 
861.868 3.78036e-06 
862.398 3.78596e-06 
862.929 3.79206e-06 
863.459 3.79877e-06 
863.989 3.80622e-06 
864.52 3.81458e-06 
865.05 3.82408e-06 
865.58 3.83501e-06 
866.11 3.84772e-06 
866.641 3.86268e-06 
867.171 3.88048e-06 
867.701 3.90184e-06 
868.231 3.92758e-06 
868.762 3.95855e-06 
869.292 3.9953e-06 
869.822 4.03755e-06 
870.353 4.08317e-06 
870.883 4.12711e-06 
871.413 4.16147e-06 
871.943 4.17791e-06 
872.474 4.17232e-06 
873.004 4.14749e-06 
873.534 4.11124e-06 
874.064 4.07186e-06 
874.595 4.03504e-06 
875.125 4.00346e-06 
875.655 3.97771e-06 
876.186 3.95736e-06 
876.716 3.9416e-06 
877.246 3.92959e-06 
877.776 3.92059e-06 
878.307 3.91399e-06 
878.837 3.9093e-06 
879.367 3.90614e-06 
879.897 3.90421e-06 
880.428 3.90329e-06 
880.958 3.90319e-06 
881.488 3.90375e-06 
882.019 3.90489e-06 
882.549 3.9065e-06 
883.079 3.90851e-06 
883.609 3.91086e-06 
884.14 3.91352e-06 
884.67 3.91643e-06 
885.2 3.91956e-06 
885.73 3.92289e-06 
886.261 3.9264e-06 
886.791 3.93008e-06 
887.321 3.93389e-06 
887.852 3.93783e-06 
888.382 3.94189e-06 
888.912 3.94607e-06 
889.442 3.95034e-06 
889.973 3.95471e-06 
890.503 3.95917e-06 
891.033 3.9637e-06 
891.563 3.96832e-06 
892.094 3.97302e-06 
892.624 3.97778e-06 
893.154 3.98261e-06 
893.685 3.98751e-06 
894.215 3.99246e-06 
894.745 3.99748e-06 
895.275 4.00255e-06 
895.806 4.00769e-06 
896.336 4.01287e-06 
896.866 4.01811e-06 
897.396 4.02338e-06 
897.927 4.02872e-06 
898.457 4.03409e-06 
898.987 4.03951e-06 
899.518 4.04496e-06 
900.048 4.05046e-06 
900.578 4.05599e-06 
901.108 4.06156e-06 
901.639 4.06715e-06 
902.169 4.07277e-06 
902.699 4.07841e-06 
903.229 4.08407e-06 
903.76 4.08975e-06 
904.29 4.09544e-06 
904.82 4.10114e-06 
905.351 4.10683e-06 
905.881 4.11253e-06 
906.411 4.1182e-06 
906.941 4.12386e-06 
907.472 4.1295e-06 
908.002 4.1351e-06 
908.532 4.14067e-06 
909.062 4.14618e-06 
909.593 4.15163e-06 
910.123 4.157e-06 
