#energy geo_1 
400 7.61739e-07 
400.53 7.61988e-07 
401.061 7.62235e-07 
401.591 7.6248e-07 
402.121 7.62723e-07 
402.651 7.62965e-07 
403.182 7.63206e-07 
403.712 7.63447e-07 
404.242 7.63688e-07 
404.772 7.63929e-07 
405.303 7.64171e-07 
405.833 7.64413e-07 
406.363 7.64657e-07 
406.894 7.64903e-07 
407.424 7.65151e-07 
407.954 7.65401e-07 
408.484 7.65654e-07 
409.015 7.65911e-07 
409.545 7.66171e-07 
410.075 7.66434e-07 
410.605 7.66701e-07 
411.136 7.66972e-07 
411.666 7.67247e-07 
412.196 7.67525e-07 
412.727 7.67807e-07 
413.257 7.68092e-07 
413.787 7.6838e-07 
414.317 7.68669e-07 
414.848 7.68959e-07 
415.378 7.69249e-07 
415.908 7.69538e-07 
416.438 7.69825e-07 
416.969 7.7011e-07 
417.499 7.7039e-07 
418.029 7.70665e-07 
418.56 7.70933e-07 
419.09 7.71192e-07 
419.62 7.71442e-07 
420.15 7.71681e-07 
420.681 7.71907e-07 
421.211 7.72119e-07 
421.741 7.72316e-07 
422.271 7.72497e-07 
422.802 7.72662e-07 
423.332 7.72809e-07 
423.862 7.72939e-07 
424.393 7.73051e-07 
424.923 7.73147e-07 
425.453 7.73224e-07 
425.983 7.73286e-07 
426.514 7.73332e-07 
427.044 7.73365e-07 
427.574 7.73384e-07 
428.104 7.73393e-07 
428.635 7.73394e-07 
429.165 7.7339e-07 
429.695 7.73382e-07 
430.226 7.73375e-07 
430.756 7.73371e-07 
431.286 7.73372e-07 
431.816 7.73383e-07 
432.347 7.73404e-07 
432.877 7.73439e-07 
433.407 7.73491e-07 
433.938 7.73561e-07 
434.468 7.73653e-07 
434.998 7.73767e-07 
435.528 7.73905e-07 
436.059 7.74069e-07 
436.589 7.74258e-07 
437.119 7.74474e-07 
437.649 7.74715e-07 
438.18 7.74981e-07 
438.71 7.75273e-07 
439.24 7.75587e-07 
439.771 7.75923e-07 
440.301 7.76278e-07 
440.831 7.76647e-07 
441.361 7.77026e-07 
441.892 7.7741e-07 
442.422 7.77796e-07 
442.952 7.7818e-07 
443.482 7.78559e-07 
444.013 7.78933e-07 
444.543 7.79299e-07 
445.073 7.79651e-07 
445.604 7.79985e-07 
446.134 7.8029e-07 
446.664 7.80553e-07 
447.194 7.8076e-07 
447.725 7.80892e-07 
448.255 7.80933e-07 
448.785 7.80867e-07 
449.315 7.80682e-07 
449.846 7.80374e-07 
450.376 7.79944e-07 
450.906 7.79398e-07 
451.437 7.78745e-07 
451.967 7.77995e-07 
452.497 7.77155e-07 
453.027 7.76238e-07 
453.558 7.75254e-07 
454.088 7.7422e-07 
454.618 7.73156e-07 
455.148 7.72089e-07 
455.679 7.71046e-07 
456.209 7.70051e-07 
456.739 7.69127e-07 
457.27 7.68288e-07 
457.8 7.67538e-07 
458.33 7.66878e-07 
458.86 7.66304e-07 
459.391 7.65813e-07 
459.921 7.65406e-07 
460.451 7.65089e-07 
460.981 7.64875e-07 
461.512 7.64778e-07 
462.042 7.64811e-07 
462.572 7.64991e-07 
463.103 7.65327e-07 
463.633 7.65825e-07 
464.163 7.66478e-07 
464.693 7.67273e-07 
465.224 7.68181e-07 
465.754 7.69167e-07 
466.284 7.70188e-07 
466.814 7.71199e-07 
467.345 7.7215e-07 
467.875 7.72992e-07 
468.405 7.73668e-07 
468.936 7.74124e-07 
469.466 7.74306e-07 
469.996 7.7418e-07 
470.526 7.73752e-07 
471.057 7.73085e-07 
471.587 7.72297e-07 
472.117 7.71548e-07 
472.647 7.71027e-07 
473.178 7.70931e-07 
473.708 7.71455e-07 
474.238 7.72752e-07 
474.769 7.74857e-07 
475.299 7.77549e-07 
475.829 7.8017e-07 
476.359 7.8157e-07 
476.89 7.80447e-07 
477.42 7.76075e-07 
477.95 7.68844e-07 
478.48 7.59999e-07 
479.011 7.50889e-07 
479.541 7.42451e-07 
480.071 7.35144e-07 
480.602 7.29104e-07 
481.132 7.24308e-07 
481.662 7.20674e-07 
482.192 7.18111e-07 
482.723 7.16535e-07 
483.253 7.15862e-07 
483.783 7.16009e-07 
484.313 7.16884e-07 
484.844 7.18382e-07 
485.374 7.20393e-07 
485.904 7.22799e-07 
486.435 7.25482e-07 
486.965 7.28319e-07 
487.495 7.31185e-07 
488.025 7.33945e-07 
488.556 7.36458e-07 
489.086 7.38589e-07 
489.616 7.40255e-07 
490.146 7.41466e-07 
490.677 7.42358e-07 
491.207 7.43185e-07 
491.737 7.44287e-07 
492.268 7.46057e-07 
492.798 7.489e-07 
493.328 7.53196e-07 
493.858 7.59199e-07 
494.389 7.66835e-07 
494.919 7.75345e-07 
495.449 7.82905e-07 
495.979 7.86657e-07 
496.51 7.83723e-07 
497.04 7.72946e-07 
497.57 7.55748e-07 
498.101 7.35146e-07 
498.631 7.14046e-07 
499.161 6.94316e-07 
499.691 6.768e-07 
500.222 6.61693e-07 
500.752 6.48891e-07 
501.282 6.38189e-07 
501.812 6.2937e-07 
502.343 6.22239e-07 
502.873 6.1662e-07 
503.403 6.12352e-07 
503.934 6.09288e-07 
504.464 6.07294e-07 
504.994 6.06257e-07 
505.524 6.06089e-07 
506.055 6.06725e-07 
506.585 6.08111e-07 
507.115 6.10177e-07 
507.646 6.12816e-07 
508.176 6.15868e-07 
508.706 6.19159e-07 
509.236 6.22577e-07 
509.767 6.26178e-07 
510.297 6.30246e-07 
510.827 6.35272e-07 
511.357 6.41892e-07 
511.888 6.508e-07 
512.418 6.62672e-07 
512.948 6.78061e-07 
513.479 6.97192e-07 
514.009 7.19541e-07 
514.539 7.43187e-07 
515.069 7.6423e-07 
515.6 7.77211e-07 
516.13 7.77371e-07 
516.66 7.6367e-07 
517.19 7.39562e-07 
517.721 7.10633e-07 
518.251 6.81692e-07 
518.781 6.55523e-07 
519.312 6.3316e-07 
519.842 6.14603e-07 
520.372 5.99405e-07 
520.902 5.87003e-07 
521.433 5.76861e-07 
521.963 5.68526e-07 
522.493 5.61629e-07 
523.023 5.5588e-07 
523.554 5.51051e-07 
524.084 5.46966e-07 
524.614 5.43485e-07 
525.145 5.40499e-07 
525.675 5.37921e-07 
526.205 5.35683e-07 
526.735 5.3373e-07 
527.266 5.32018e-07 
527.796 5.30509e-07 
528.326 5.29175e-07 
528.856 5.27991e-07 
529.387 5.26936e-07 
529.917 5.25995e-07 
530.447 5.25151e-07 
530.978 5.24394e-07 
531.508 5.23713e-07 
532.038 5.23099e-07 
532.568 5.22546e-07 
533.099 5.22046e-07 
533.629 5.21594e-07 
534.159 5.21185e-07 
534.689 5.20815e-07 
535.22 5.2048e-07 
535.75 5.20177e-07 
536.28 5.19903e-07 
536.811 5.19656e-07 
537.341 5.19433e-07 
537.871 5.19232e-07 
538.401 5.19052e-07 
538.932 5.1889e-07 
539.462 5.18746e-07 
539.992 5.18618e-07 
540.522 5.18504e-07 
541.053 5.18405e-07 
541.583 5.18318e-07 
542.113 5.18244e-07 
542.644 5.1818e-07 
543.174 5.18127e-07 
543.704 5.18084e-07 
544.234 5.18051e-07 
544.765 5.18025e-07 
545.295 5.18008e-07 
545.825 5.17999e-07 
546.355 5.17997e-07 
546.886 5.18001e-07 
547.416 5.18012e-07 
547.946 5.1803e-07 
548.477 5.18053e-07 
549.007 5.18082e-07 
549.537 5.18116e-07 
550.067 5.18155e-07 
550.598 5.18199e-07 
551.128 5.18248e-07 
551.658 5.18301e-07 
552.188 5.18358e-07 
552.719 5.18419e-07 
553.249 5.18484e-07 
553.779 5.18553e-07 
554.31 5.18625e-07 
554.84 5.18701e-07 
555.37 5.18781e-07 
555.9 5.18863e-07 
556.431 5.18949e-07 
556.961 5.19038e-07 
557.491 5.19129e-07 
558.021 5.19224e-07 
558.552 5.19321e-07 
559.082 5.19421e-07 
559.612 5.19524e-07 
560.143 5.19629e-07 
560.673 5.19737e-07 
561.203 5.19847e-07 
561.733 5.19959e-07 
562.264 5.20073e-07 
562.794 5.2019e-07 
563.324 5.20309e-07 
563.854 5.20431e-07 
564.385 5.20553e-07 
564.915 5.20678e-07 
565.445 5.20805e-07 
565.976 5.20934e-07 
566.506 5.21065e-07 
567.036 5.21197e-07 
567.566 5.21331e-07 
568.097 5.21467e-07 
568.627 5.21605e-07 
569.157 5.21744e-07 
569.688 5.21884e-07 
570.218 5.22027e-07 
570.748 5.22171e-07 
571.278 5.22316e-07 
571.809 5.22463e-07 
572.339 5.22611e-07 
572.869 5.2276e-07 
573.399 5.22911e-07 
573.93 5.23063e-07 
574.46 5.23217e-07 
574.99 5.23372e-07 
575.521 5.23528e-07 
576.051 5.23686e-07 
576.581 5.23845e-07 
577.111 5.24005e-07 
577.642 5.24166e-07 
578.172 5.24329e-07 
578.702 5.24493e-07 
579.232 5.24659e-07 
579.763 5.24825e-07 
580.293 5.24993e-07 
580.823 5.25162e-07 
581.354 5.25333e-07 
581.884 5.25505e-07 
582.414 5.25678e-07 
582.944 5.25852e-07 
583.475 5.26028e-07 
584.005 5.26205e-07 
584.535 5.26383e-07 
585.065 5.26563e-07 
585.596 5.26744e-07 
586.126 5.26926e-07 
586.656 5.27109e-07 
587.187 5.27294e-07 
587.717 5.27479e-07 
588.247 5.27666e-07 
588.777 5.27855e-07 
589.308 5.28044e-07 
589.838 5.28235e-07 
590.368 5.28426e-07 
590.898 5.28619e-07 
591.429 5.28814e-07 
591.959 5.29009e-07 
592.489 5.29205e-07 
593.02 5.29402e-07 
593.55 5.296e-07 
594.08 5.298e-07 
594.61 5.3e-07 
595.141 5.30201e-07 
595.671 5.30402e-07 
596.201 5.30605e-07 
596.731 5.30809e-07 
597.262 5.31013e-07 
597.792 5.31218e-07 
598.322 5.31424e-07 
598.853 5.31631e-07 
599.383 5.31838e-07 
599.913 5.32046e-07 
600.443 5.32255e-07 
600.974 5.32465e-07 
601.504 5.32675e-07 
602.034 5.32886e-07 
602.564 5.33098e-07 
603.095 5.33311e-07 
603.625 5.33525e-07 
604.155 5.33739e-07 
604.686 5.33954e-07 
605.216 5.34171e-07 
605.746 5.34388e-07 
606.276 5.34606e-07 
606.807 5.34825e-07 
607.337 5.35045e-07 
607.867 5.35266e-07 
608.397 5.35489e-07 
608.928 5.35713e-07 
609.458 5.35938e-07 
609.988 5.36164e-07 
610.519 5.36392e-07 
611.049 5.36621e-07 
611.579 5.36851e-07 
612.109 5.37084e-07 
612.64 5.37317e-07 
613.17 5.37552e-07 
613.7 5.37789e-07 
614.23 5.38027e-07 
614.761 5.38267e-07 
615.291 5.38508e-07 
615.821 5.38751e-07 
616.352 5.38996e-07 
616.882 5.39242e-07 
617.412 5.3949e-07 
617.942 5.39739e-07 
618.473 5.3999e-07 
619.003 5.40242e-07 
619.533 5.40495e-07 
620.063 5.4075e-07 
620.594 5.41006e-07 
621.124 5.41264e-07 
621.654 5.41522e-07 
622.185 5.41782e-07 
622.715 5.42043e-07 
623.245 5.42305e-07 
623.775 5.42568e-07 
624.306 5.42832e-07 
624.836 5.43096e-07 
625.366 5.43362e-07 
625.896 5.43628e-07 
626.427 5.43895e-07 
626.957 5.44163e-07 
627.487 5.44431e-07 
628.018 5.447e-07 
628.548 5.4497e-07 
629.078 5.4524e-07 
629.608 5.45511e-07 
630.139 5.45783e-07 
630.669 5.46055e-07 
631.199 5.46328e-07 
631.729 5.46602e-07 
632.26 5.46876e-07 
632.79 5.47152e-07 
633.32 5.47428e-07 
633.851 5.47705e-07 
634.381 5.47983e-07 
634.911 5.48262e-07 
635.441 5.48542e-07 
635.972 5.48824e-07 
636.502 5.49106e-07 
637.032 5.49391e-07 
637.562 5.49676e-07 
638.093 5.49963e-07 
638.623 5.50251e-07 
639.153 5.50541e-07 
639.684 5.50834e-07 
640.214 5.51127e-07 
640.744 5.51422e-07 
641.274 5.51719e-07 
641.805 5.52018e-07 
642.335 5.52319e-07 
642.865 5.52621e-07 
643.396 5.52926e-07 
643.926 5.53232e-07 
644.456 5.5354e-07 
644.986 5.5385e-07 
645.517 5.54161e-07 
646.047 5.54475e-07 
646.577 5.54789e-07 
647.107 5.55106e-07 
647.638 5.55424e-07 
648.168 5.55744e-07 
648.698 5.56064e-07 
649.229 5.56387e-07 
649.759 5.5671e-07 
650.289 5.57034e-07 
650.819 5.57359e-07 
651.35 5.57685e-07 
651.88 5.58013e-07 
652.41 5.5834e-07 
652.94 5.58668e-07 
653.471 5.58998e-07 
654.001 5.59327e-07 
654.531 5.59657e-07 
655.062 5.59988e-07 
655.592 5.60319e-07 
656.122 5.6065e-07 
656.652 5.60981e-07 
657.183 5.61313e-07 
657.713 5.61646e-07 
658.243 5.61979e-07 
658.773 5.62312e-07 
659.304 5.62645e-07 
659.834 5.62979e-07 
660.364 5.63313e-07 
660.895 5.63648e-07 
661.425 5.63983e-07 
661.955 5.64318e-07 
662.485 5.64655e-07 
663.016 5.64992e-07 
663.546 5.6533e-07 
664.076 5.65668e-07 
664.606 5.66008e-07 
665.137 5.66348e-07 
665.667 5.66689e-07 
666.197 5.67032e-07 
666.728 5.67375e-07 
667.258 5.67719e-07 
667.788 5.68065e-07 
668.318 5.68412e-07 
668.849 5.6876e-07 
669.379 5.69109e-07 
669.909 5.69458e-07 
670.439 5.6981e-07 
670.97 5.70162e-07 
671.5 5.70515e-07 
672.03 5.7087e-07 
672.561 5.71225e-07 
673.091 5.71581e-07 
673.621 5.71938e-07 
674.151 5.72296e-07 
674.682 5.72655e-07 
675.212 5.73015e-07 
675.742 5.73375e-07 
676.272 5.73736e-07 
676.803 5.74098e-07 
677.333 5.7446e-07 
677.863 5.74823e-07 
678.394 5.75187e-07 
678.924 5.7555e-07 
679.454 5.75915e-07 
679.984 5.7628e-07 
680.515 5.76645e-07 
681.045 5.77011e-07 
681.575 5.77377e-07 
682.105 5.77744e-07 
682.636 5.78111e-07 
683.166 5.7848e-07 
683.696 5.78848e-07 
684.227 5.79218e-07 
684.757 5.79588e-07 
685.287 5.79958e-07 
685.817 5.8033e-07 
686.348 5.80702e-07 
686.878 5.81075e-07 
687.408 5.8145e-07 
687.938 5.81825e-07 
688.469 5.82201e-07 
688.999 5.82579e-07 
689.529 5.82957e-07 
690.06 5.83337e-07 
690.59 5.83717e-07 
691.12 5.84099e-07 
691.65 5.84482e-07 
692.181 5.84866e-07 
692.711 5.85251e-07 
693.241 5.85638e-07 
693.771 5.86025e-07 
694.302 5.86413e-07 
694.832 5.86804e-07 
695.362 5.87194e-07 
695.893 5.87586e-07 
696.423 5.87978e-07 
696.953 5.88371e-07 
697.483 5.88765e-07 
698.014 5.8916e-07 
698.544 5.89556e-07 
699.074 5.89952e-07 
699.604 5.90349e-07 
700.135 5.90747e-07 
700.665 5.91145e-07 
701.195 5.91544e-07 
701.726 5.91943e-07 
702.256 5.92343e-07 
702.786 5.92744e-07 
703.316 5.93145e-07 
703.847 5.93547e-07 
704.377 5.93949e-07 
704.907 5.94353e-07 
705.438 5.94757e-07 
705.968 5.95161e-07 
706.498 5.95567e-07 
707.028 5.95973e-07 
707.559 5.96381e-07 
708.089 5.96789e-07 
708.619 5.97198e-07 
709.149 5.97609e-07 
709.68 5.98021e-07 
710.21 5.98434e-07 
710.74 5.98848e-07 
711.271 5.99263e-07 
711.801 5.9968e-07 
712.331 6.00097e-07 
712.861 6.00517e-07 
713.392 6.00938e-07 
713.922 6.0136e-07 
714.452 6.01783e-07 
714.982 6.02208e-07 
715.513 6.02633e-07 
716.043 6.0306e-07 
716.573 6.03489e-07 
717.104 6.03918e-07 
717.634 6.04348e-07 
718.164 6.04779e-07 
718.694 6.05211e-07 
719.225 6.05644e-07 
719.755 6.06078e-07 
720.285 6.06512e-07 
720.815 6.06947e-07 
721.346 6.07383e-07 
721.876 6.0782e-07 
722.406 6.08257e-07 
722.937 6.08694e-07 
723.467 6.09133e-07 
723.997 6.09572e-07 
724.527 6.10012e-07 
725.058 6.10452e-07 
725.588 6.10894e-07 
726.118 6.11336e-07 
726.648 6.11779e-07 
727.179 6.12222e-07 
727.709 6.12667e-07 
728.239 6.13112e-07 
728.77 6.13559e-07 
729.3 6.14006e-07 
729.83 6.14456e-07 
730.36 6.14906e-07 
730.891 6.15357e-07 
731.421 6.15811e-07 
731.951 6.16265e-07 
732.481 6.1672e-07 
733.012 6.17178e-07 
733.542 6.17637e-07 
734.072 6.18098e-07 
734.603 6.18559e-07 
735.133 6.19022e-07 
735.663 6.19487e-07 
736.193 6.19953e-07 
736.724 6.2042e-07 
737.254 6.20888e-07 
737.784 6.21358e-07 
738.314 6.21829e-07 
738.845 6.22302e-07 
739.375 6.22775e-07 
739.905 6.23249e-07 
740.436 6.23724e-07 
740.966 6.242e-07 
741.496 6.24677e-07 
742.026 6.25155e-07 
742.557 6.25634e-07 
743.087 6.26113e-07 
743.617 6.26593e-07 
744.147 6.27074e-07 
744.678 6.27555e-07 
745.208 6.28038e-07 
745.738 6.28521e-07 
746.269 6.29006e-07 
746.799 6.29491e-07 
747.329 6.29977e-07 
747.859 6.30464e-07 
748.39 6.30953e-07 
748.92 6.31443e-07 
749.45 6.31934e-07 
749.98 6.32426e-07 
750.511 6.3292e-07 
751.041 6.33415e-07 
751.571 6.33911e-07 
752.102 6.34409e-07 
752.632 6.34909e-07 
753.162 6.3541e-07 
753.692 6.35912e-07 
754.223 6.36417e-07 
754.753 6.36923e-07 
755.283 6.3743e-07 
755.813 6.37938e-07 
756.344 6.38448e-07 
756.874 6.3896e-07 
757.404 6.39473e-07 
757.935 6.39987e-07 
758.465 6.40502e-07 
758.995 6.41018e-07 
759.525 6.41536e-07 
760.056 6.42054e-07 
760.586 6.42573e-07 
761.116 6.43094e-07 
761.646 6.43615e-07 
762.177 6.44138e-07 
762.707 6.44662e-07 
763.237 6.45186e-07 
763.768 6.45712e-07 
764.298 6.46239e-07 
764.828 6.46766e-07 
765.358 6.47296e-07 
765.889 6.47826e-07 
766.419 6.48358e-07 
766.949 6.48891e-07 
767.479 6.49427e-07 
768.01 6.49963e-07 
768.54 6.50501e-07 
769.07 6.51041e-07 
769.601 6.51582e-07 
770.131 6.52126e-07 
770.661 6.52671e-07 
771.191 6.53217e-07 
771.722 6.53765e-07 
772.252 6.54315e-07 
772.782 6.54866e-07 
773.312 6.55419e-07 
773.843 6.55974e-07 
774.373 6.5653e-07 
774.903 6.57087e-07 
775.434 6.57645e-07 
775.964 6.58204e-07 
776.494 6.58765e-07 
777.024 6.59327e-07 
777.555 6.5989e-07 
778.085 6.60454e-07 
778.615 6.61019e-07 
779.146 6.61585e-07 
779.676 6.62153e-07 
780.206 6.62722e-07 
780.736 6.63292e-07 
781.267 6.63863e-07 
781.797 6.64436e-07 
782.327 6.65011e-07 
782.857 6.65587e-07 
783.388 6.66165e-07 
783.918 6.66745e-07 
784.448 6.67327e-07 
784.979 6.67911e-07 
785.509 6.68496e-07 
786.039 6.69083e-07 
786.569 6.69673e-07 
787.1 6.70263e-07 
787.63 6.70856e-07 
788.16 6.7145e-07 
788.69 6.72045e-07 
789.221 6.72642e-07 
789.751 6.7324e-07 
790.281 6.73839e-07 
790.812 6.74439e-07 
791.342 6.7504e-07 
791.872 6.75642e-07 
792.402 6.76245e-07 
792.933 6.76849e-07 
793.463 6.77454e-07 
793.993 6.7806e-07 
794.523 6.78668e-07 
795.054 6.79276e-07 
795.584 6.79888e-07 
796.114 6.805e-07 
796.645 6.81115e-07 
797.175 6.81733e-07 
797.705 6.82353e-07 
798.235 6.82976e-07 
798.766 6.83602e-07 
799.296 6.84231e-07 
799.826 6.84863e-07 
800.356 6.85499e-07 
800.887 6.86136e-07 
801.417 6.86777e-07 
801.947 6.87421e-07 
802.478 6.88066e-07 
803.008 6.88714e-07 
803.538 6.89364e-07 
804.068 6.90015e-07 
804.599 6.90667e-07 
805.129 6.91319e-07 
805.659 6.91972e-07 
806.189 6.92626e-07 
806.72 6.93278e-07 
807.25 6.93931e-07 
807.78 6.94584e-07 
808.311 6.95237e-07 
808.841 6.9589e-07 
809.371 6.96543e-07 
809.901 6.97197e-07 
810.432 6.97851e-07 
810.962 6.98507e-07 
811.492 6.99164e-07 
812.022 6.99823e-07 
812.553 7.00484e-07 
813.083 7.01147e-07 
813.613 7.01812e-07 
814.144 7.0248e-07 
814.674 7.03151e-07 
815.204 7.03824e-07 
815.734 7.04499e-07 
816.265 7.05175e-07 
816.795 7.05855e-07 
817.325 7.06535e-07 
817.855 7.07216e-07 
818.386 7.07899e-07 
818.916 7.08582e-07 
819.446 7.09266e-07 
819.977 7.09951e-07 
820.507 7.10636e-07 
821.037 7.11323e-07 
821.567 7.12011e-07 
822.098 7.12703e-07 
822.628 7.13396e-07 
823.158 7.14093e-07 
823.688 7.14794e-07 
824.219 7.155e-07 
824.749 7.16212e-07 
825.279 7.1693e-07 
825.81 7.17655e-07 
826.34 7.18388e-07 
826.87 7.19128e-07 
827.4 7.19875e-07 
827.931 7.2063e-07 
828.461 7.21391e-07 
828.991 7.22158e-07 
829.521 7.2293e-07 
830.052 7.23705e-07 
830.582 7.24482e-07 
831.112 7.25261e-07 
831.643 7.2604e-07 
832.173 7.26818e-07 
832.703 7.27593e-07 
833.233 7.28366e-07 
833.764 7.29135e-07 
834.294 7.299e-07 
834.824 7.30661e-07 
835.354 7.31416e-07 
835.885 7.32167e-07 
836.415 7.32914e-07 
836.945 7.33658e-07 
837.476 7.34396e-07 
838.006 7.35131e-07 
838.536 7.35862e-07 
839.066 7.36588e-07 
839.597 7.3731e-07 
840.127 7.38027e-07 
840.657 7.38738e-07 
841.188 7.39444e-07 
841.718 7.40142e-07 
842.248 7.40835e-07 
842.778 7.41519e-07 
843.309 7.42198e-07 
843.839 7.42872e-07 
844.369 7.43545e-07 
844.899 7.44219e-07 
845.43 7.44892e-07 
845.96 7.45568e-07 
846.49 7.46251e-07 
847.021 7.46941e-07 
847.551 7.47638e-07 
848.081 7.48345e-07 
848.611 7.49065e-07 
849.142 7.49803e-07 
849.672 7.50562e-07 
850.202 7.51342e-07 
850.732 7.52148e-07 
851.263 7.52984e-07 
851.793 7.53848e-07 
852.323 7.54742e-07 
852.854 7.55669e-07 
853.384 7.56625e-07 
853.914 7.57609e-07 
854.444 7.58621e-07 
854.975 7.59661e-07 
855.505 7.60722e-07 
856.035 7.61799e-07 
856.565 7.62893e-07 
857.096 7.64001e-07 
857.626 7.65115e-07 
858.156 7.6623e-07 
858.687 7.67346e-07 
859.217 7.6846e-07 
859.747 7.69567e-07 
860.277 7.70657e-07 
860.808 7.71729e-07 
861.338 7.72783e-07 
861.868 7.73809e-07 
862.398 7.74797e-07 
862.929 7.7574e-07 
863.459 7.76633e-07 
863.989 7.7747e-07 
864.52 7.78242e-07 
865.05 7.78939e-07 
865.58 7.79556e-07 
866.11 7.80093e-07 
866.641 7.80553e-07 
867.171 7.80931e-07 
867.701 7.8123e-07 
868.231 7.81455e-07 
868.762 7.81621e-07 
869.292 7.81736e-07 
869.822 7.81806e-07 
870.353 7.81836e-07 
870.883 7.81838e-07 
871.413 7.81829e-07 
871.943 7.81817e-07 
872.474 7.81809e-07 
873.004 7.81813e-07 
873.534 7.81838e-07 
874.064 7.81901e-07 
874.595 7.82022e-07 
875.125 7.82211e-07 
875.655 7.82484e-07 
876.186 7.82863e-07 
876.716 7.83378e-07 
877.246 7.84055e-07 
877.776 7.84913e-07 
878.307 7.85965e-07 
878.837 7.87223e-07 
879.367 7.88697e-07 
879.897 7.90388e-07 
880.428 7.92291e-07 
880.958 7.94391e-07 
881.488 7.96679e-07 
882.019 7.99153e-07 
882.549 8.01812e-07 
883.079 8.04653e-07 
883.609 8.07665e-07 
884.14 8.1083e-07 
884.67 8.1413e-07 
885.2 8.17535e-07 
885.73 8.20997e-07 
886.261 8.24451e-07 
886.791 8.27827e-07 
887.321 8.31053e-07 
887.852 8.34062e-07 
888.382 8.36794e-07 
888.912 8.39188e-07 
889.442 8.41196e-07 
889.973 8.42784e-07 
890.503 8.43931e-07 
891.033 8.4461e-07 
891.563 8.44781e-07 
892.094 8.44403e-07 
892.624 8.43447e-07 
893.154 8.41897e-07 
893.685 8.39744e-07 
894.215 8.36995e-07 
894.745 8.3368e-07 
895.275 8.29857e-07 
895.806 8.25602e-07 
896.336 8.20991e-07 
896.866 8.16082e-07 
897.396 8.10913e-07 
897.927 8.05524e-07 
898.457 7.99968e-07 
898.987 7.94299e-07 
899.518 7.88594e-07 
900.048 7.82963e-07 
900.578 7.77556e-07 
901.108 7.72533e-07 
901.639 7.68025e-07 
902.169 7.64129e-07 
902.699 7.60891e-07 
903.229 7.58322e-07 
903.76 7.56427e-07 
904.29 7.55256e-07 
904.82 7.54959e-07 
905.351 7.55797e-07 
905.881 7.58084e-07 
906.411 7.62083e-07 
906.941 7.67858e-07 
907.472 7.75255e-07 
908.002 7.83997e-07 
908.532 7.93748e-07 
909.062 8.04252e-07 
