#energy geo_1 
400 2.96937e-07 
400.53 2.96978e-07 
401.061 2.9702e-07 
401.591 2.9706e-07 
402.121 2.971e-07 
402.651 2.9714e-07 
403.182 2.9718e-07 
403.712 2.97219e-07 
404.242 2.97258e-07 
404.772 2.97297e-07 
405.303 2.97337e-07 
405.833 2.97377e-07 
406.363 2.97418e-07 
406.894 2.97459e-07 
407.424 2.97501e-07 
407.954 2.97545e-07 
408.484 2.97589e-07 
409.015 2.97633e-07 
409.545 2.97679e-07 
410.075 2.97724e-07 
410.605 2.9777e-07 
411.136 2.97816e-07 
411.666 2.97861e-07 
412.196 2.97906e-07 
412.727 2.97951e-07 
413.257 2.97995e-07 
413.787 2.98039e-07 
414.317 2.98082e-07 
414.848 2.98124e-07 
415.378 2.98166e-07 
415.908 2.98207e-07 
416.438 2.98248e-07 
416.969 2.98288e-07 
417.499 2.98328e-07 
418.029 2.98368e-07 
418.56 2.98408e-07 
419.09 2.98449e-07 
419.62 2.98489e-07 
420.15 2.9853e-07 
420.681 2.98571e-07 
421.211 2.98613e-07 
421.741 2.98655e-07 
422.271 2.98698e-07 
422.802 2.98741e-07 
423.332 2.98784e-07 
423.862 2.98828e-07 
424.393 2.98872e-07 
424.923 2.98916e-07 
425.453 2.9896e-07 
425.983 2.99004e-07 
426.514 2.99049e-07 
427.044 2.99093e-07 
427.574 2.99137e-07 
428.104 2.9918e-07 
428.635 2.99223e-07 
429.165 2.99266e-07 
429.695 2.99309e-07 
430.226 2.99351e-07 
430.756 2.99393e-07 
431.286 2.99435e-07 
431.816 2.99477e-07 
432.347 2.99518e-07 
432.877 2.9956e-07 
433.407 2.99601e-07 
433.938 2.99643e-07 
434.468 2.99685e-07 
434.998 2.99727e-07 
435.528 2.99769e-07 
436.059 2.99811e-07 
436.589 2.99854e-07 
437.119 2.99897e-07 
437.649 2.99941e-07 
438.18 2.99985e-07 
438.71 3.00029e-07 
439.24 3.00073e-07 
439.771 3.00118e-07 
440.301 3.00163e-07 
440.831 3.00208e-07 
441.361 3.00254e-07 
441.892 3.00299e-07 
442.422 3.00345e-07 
442.952 3.0039e-07 
443.482 3.00435e-07 
444.013 3.00481e-07 
444.543 3.00526e-07 
445.073 3.00571e-07 
445.604 3.00615e-07 
446.134 3.0066e-07 
446.664 3.00704e-07 
447.194 3.00748e-07 
447.725 3.00791e-07 
448.255 3.00834e-07 
448.785 3.00877e-07 
449.315 3.0092e-07 
449.846 3.00962e-07 
450.376 3.01004e-07 
450.906 3.01047e-07 
451.437 3.01089e-07 
451.967 3.01131e-07 
452.497 3.01173e-07 
453.027 3.01215e-07 
453.558 3.01258e-07 
454.088 3.013e-07 
454.618 3.01343e-07 
455.148 3.01386e-07 
455.679 3.01429e-07 
456.209 3.01473e-07 
456.739 3.01517e-07 
457.27 3.01561e-07 
457.8 3.01606e-07 
458.33 3.01651e-07 
458.86 3.01696e-07 
459.391 3.01742e-07 
459.921 3.01788e-07 
460.451 3.01834e-07 
460.981 3.0188e-07 
461.512 3.01927e-07 
462.042 3.01974e-07 
462.572 3.02021e-07 
463.103 3.02068e-07 
463.633 3.02115e-07 
464.163 3.02162e-07 
464.693 3.02209e-07 
465.224 3.02256e-07 
465.754 3.02302e-07 
466.284 3.02349e-07 
466.814 3.02395e-07 
467.345 3.02441e-07 
467.875 3.02487e-07 
468.405 3.02533e-07 
468.936 3.02578e-07 
469.466 3.02623e-07 
469.996 3.02668e-07 
470.526 3.02713e-07 
471.057 3.02758e-07 
471.587 3.02802e-07 
472.117 3.02846e-07 
472.647 3.0289e-07 
473.178 3.02934e-07 
473.708 3.02978e-07 
474.238 3.03022e-07 
474.769 3.03066e-07 
475.299 3.03109e-07 
475.829 3.03153e-07 
476.359 3.03197e-07 
476.89 3.03242e-07 
477.42 3.03286e-07 
477.95 3.03331e-07 
478.48 3.03376e-07 
479.011 3.03421e-07 
479.541 3.03466e-07 
480.071 3.03512e-07 
480.602 3.03558e-07 
481.132 3.03604e-07 
481.662 3.03651e-07 
482.192 3.03697e-07 
482.723 3.03744e-07 
483.253 3.03792e-07 
483.783 3.03839e-07 
484.313 3.03887e-07 
484.844 3.03935e-07 
485.374 3.03983e-07 
485.904 3.04031e-07 
486.435 3.04079e-07 
486.965 3.04127e-07 
487.495 3.04176e-07 
488.025 3.04224e-07 
488.556 3.04272e-07 
489.086 3.04321e-07 
489.616 3.04369e-07 
490.146 3.04417e-07 
490.677 3.04465e-07 
491.207 3.04513e-07 
491.737 3.04561e-07 
492.268 3.04609e-07 
492.798 3.04656e-07 
493.328 3.04703e-07 
493.858 3.04751e-07 
494.389 3.04798e-07 
494.919 3.04845e-07 
495.449 3.04892e-07 
495.979 3.04938e-07 
496.51 3.04985e-07 
497.04 3.05031e-07 
497.57 3.05078e-07 
498.101 3.05124e-07 
498.631 3.0517e-07 
499.161 3.05217e-07 
499.691 3.05263e-07 
500.222 3.05309e-07 
500.752 3.05356e-07 
501.282 3.05402e-07 
501.812 3.05449e-07 
502.343 3.05495e-07 
502.873 3.05542e-07 
503.403 3.05589e-07 
503.934 3.05636e-07 
504.464 3.05683e-07 
504.994 3.05731e-07 
505.524 3.05779e-07 
506.055 3.05827e-07 
506.585 3.05875e-07 
507.115 3.05923e-07 
507.646 3.05972e-07 
508.176 3.0602e-07 
508.706 3.06069e-07 
509.236 3.06118e-07 
509.767 3.06168e-07 
510.297 3.06217e-07 
510.827 3.06267e-07 
511.357 3.06316e-07 
511.888 3.06366e-07 
512.418 3.06416e-07 
512.948 3.06466e-07 
513.479 3.06516e-07 
514.009 3.06566e-07 
514.539 3.06616e-07 
515.069 3.06666e-07 
515.6 3.06716e-07 
516.13 3.06766e-07 
516.66 3.06816e-07 
517.19 3.06866e-07 
517.721 3.06916e-07 
518.251 3.06966e-07 
518.781 3.07016e-07 
519.312 3.07065e-07 
519.842 3.07115e-07 
520.372 3.07164e-07 
520.902 3.07214e-07 
521.433 3.07263e-07 
521.963 3.07313e-07 
522.493 3.07362e-07 
523.023 3.07411e-07 
523.554 3.0746e-07 
524.084 3.07509e-07 
524.614 3.07559e-07 
525.145 3.07608e-07 
525.675 3.07657e-07 
526.205 3.07706e-07 
526.735 3.07755e-07 
527.266 3.07804e-07 
527.796 3.07853e-07 
528.326 3.07902e-07 
528.856 3.07952e-07 
529.387 3.08001e-07 
529.917 3.08051e-07 
530.447 3.081e-07 
530.978 3.0815e-07 
531.508 3.082e-07 
532.038 3.0825e-07 
532.568 3.083e-07 
533.099 3.0835e-07 
533.629 3.084e-07 
534.159 3.08451e-07 
534.689 3.08502e-07 
535.22 3.08552e-07 
535.75 3.08603e-07 
536.28 3.08655e-07 
536.811 3.08706e-07 
537.341 3.08757e-07 
537.871 3.08809e-07 
538.401 3.0886e-07 
538.932 3.08912e-07 
539.462 3.08964e-07 
539.992 3.09016e-07 
540.522 3.09068e-07 
541.053 3.0912e-07 
541.583 3.09172e-07 
542.113 3.09224e-07 
542.644 3.09277e-07 
543.174 3.09329e-07 
543.704 3.09381e-07 
544.234 3.09434e-07 
544.765 3.09486e-07 
545.295 3.09538e-07 
545.825 3.09591e-07 
546.355 3.09643e-07 
546.886 3.09695e-07 
547.416 3.09747e-07 
547.946 3.098e-07 
548.477 3.09852e-07 
549.007 3.09904e-07 
549.537 3.09956e-07 
550.067 3.10009e-07 
550.598 3.10061e-07 
551.128 3.10113e-07 
551.658 3.10165e-07 
552.188 3.10217e-07 
552.719 3.10269e-07 
553.249 3.10321e-07 
553.779 3.10374e-07 
554.31 3.10426e-07 
554.84 3.10478e-07 
555.37 3.1053e-07 
555.9 3.10582e-07 
556.431 3.10635e-07 
556.961 3.10687e-07 
557.491 3.10739e-07 
558.021 3.10792e-07 
558.552 3.10844e-07 
559.082 3.10897e-07 
559.612 3.1095e-07 
560.143 3.11002e-07 
560.673 3.11055e-07 
561.203 3.11108e-07 
561.733 3.11161e-07 
562.264 3.11214e-07 
562.794 3.11267e-07 
563.324 3.11321e-07 
563.854 3.11374e-07 
564.385 3.11428e-07 
564.915 3.11482e-07 
565.445 3.11535e-07 
565.976 3.1159e-07 
566.506 3.11644e-07 
567.036 3.11698e-07 
567.566 3.11752e-07 
568.097 3.11806e-07 
568.627 3.11861e-07 
569.157 3.11915e-07 
569.688 3.1197e-07 
570.218 3.12025e-07 
570.748 3.12079e-07 
571.278 3.12134e-07 
571.809 3.12189e-07 
572.339 3.12244e-07 
572.869 3.12299e-07 
573.399 3.12354e-07 
573.93 3.12409e-07 
574.46 3.12464e-07 
574.99 3.1252e-07 
575.521 3.12575e-07 
576.051 3.1263e-07 
576.581 3.12685e-07 
577.111 3.1274e-07 
577.642 3.12796e-07 
578.172 3.12851e-07 
578.702 3.12907e-07 
579.232 3.12962e-07 
579.763 3.13017e-07 
580.293 3.13073e-07 
580.823 3.13128e-07 
581.354 3.13184e-07 
581.884 3.13239e-07 
582.414 3.13295e-07 
582.944 3.1335e-07 
583.475 3.13405e-07 
584.005 3.13461e-07 
584.535 3.13517e-07 
585.065 3.13572e-07 
585.596 3.13628e-07 
586.126 3.13684e-07 
586.656 3.13739e-07 
587.187 3.13795e-07 
587.717 3.13851e-07 
588.247 3.13907e-07 
588.777 3.13963e-07 
589.308 3.14019e-07 
589.838 3.14075e-07 
590.368 3.14131e-07 
590.898 3.14187e-07 
591.429 3.14243e-07 
591.959 3.143e-07 
592.489 3.14356e-07 
593.02 3.14413e-07 
593.55 3.1447e-07 
594.08 3.14526e-07 
594.61 3.14583e-07 
595.141 3.1464e-07 
595.671 3.14697e-07 
596.201 3.14754e-07 
596.731 3.14811e-07 
597.262 3.14869e-07 
597.792 3.14926e-07 
598.322 3.14984e-07 
598.853 3.15041e-07 
599.383 3.15099e-07 
599.913 3.15156e-07 
600.443 3.15214e-07 
600.974 3.15272e-07 
601.504 3.1533e-07 
602.034 3.15388e-07 
602.564 3.15446e-07 
603.095 3.15505e-07 
603.625 3.15563e-07 
604.155 3.15621e-07 
604.686 3.15679e-07 
605.216 3.15738e-07 
605.746 3.15797e-07 
606.276 3.15855e-07 
606.807 3.15914e-07 
607.337 3.15972e-07 
607.867 3.16031e-07 
608.397 3.1609e-07 
608.928 3.16149e-07 
609.458 3.16208e-07 
609.988 3.16266e-07 
610.519 3.16325e-07 
611.049 3.16384e-07 
611.579 3.16443e-07 
612.109 3.16502e-07 
612.64 3.16562e-07 
613.17 3.16621e-07 
613.7 3.1668e-07 
614.23 3.16739e-07 
614.761 3.16799e-07 
615.291 3.16858e-07 
615.821 3.16917e-07 
616.352 3.16977e-07 
616.882 3.17036e-07 
617.412 3.17096e-07 
617.942 3.17155e-07 
618.473 3.17215e-07 
619.003 3.17275e-07 
619.533 3.17334e-07 
620.063 3.17394e-07 
620.594 3.17454e-07 
621.124 3.17514e-07 
621.654 3.17574e-07 
622.185 3.17634e-07 
622.715 3.17694e-07 
623.245 3.17755e-07 
623.775 3.17815e-07 
624.306 3.17875e-07 
624.836 3.17936e-07 
625.366 3.17996e-07 
625.896 3.18057e-07 
626.427 3.18118e-07 
626.957 3.18178e-07 
627.487 3.18239e-07 
628.018 3.183e-07 
628.548 3.18361e-07 
629.078 3.18422e-07 
629.608 3.18483e-07 
630.139 3.18545e-07 
630.669 3.18606e-07 
631.199 3.18667e-07 
631.729 3.18729e-07 
632.26 3.1879e-07 
632.79 3.18852e-07 
633.32 3.18914e-07 
633.851 3.18976e-07 
634.381 3.19038e-07 
634.911 3.191e-07 
635.441 3.19162e-07 
635.972 3.19224e-07 
636.502 3.19286e-07 
637.032 3.19348e-07 
637.562 3.19411e-07 
638.093 3.19473e-07 
638.623 3.19536e-07 
639.153 3.19598e-07 
639.684 3.19661e-07 
640.214 3.19724e-07 
640.744 3.19786e-07 
641.274 3.19849e-07 
641.805 3.19912e-07 
642.335 3.19975e-07 
642.865 3.20039e-07 
643.396 3.20102e-07 
643.926 3.20165e-07 
644.456 3.20228e-07 
644.986 3.20291e-07 
645.517 3.20355e-07 
646.047 3.20418e-07 
646.577 3.20482e-07 
647.107 3.20545e-07 
647.638 3.20609e-07 
648.168 3.20673e-07 
648.698 3.20736e-07 
649.229 3.208e-07 
649.759 3.20864e-07 
650.289 3.20928e-07 
650.819 3.20992e-07 
651.35 3.21056e-07 
651.88 3.21121e-07 
652.41 3.21185e-07 
652.94 3.21249e-07 
653.471 3.21313e-07 
654.001 3.21378e-07 
654.531 3.21442e-07 
655.062 3.21507e-07 
655.592 3.21571e-07 
656.122 3.21636e-07 
656.652 3.21701e-07 
657.183 3.21766e-07 
657.713 3.21831e-07 
658.243 3.21896e-07 
658.773 3.2196e-07 
659.304 3.22026e-07 
659.834 3.22091e-07 
660.364 3.22156e-07 
660.895 3.22222e-07 
661.425 3.22287e-07 
661.955 3.22352e-07 
662.485 3.22418e-07 
663.016 3.22484e-07 
663.546 3.22549e-07 
664.076 3.22615e-07 
664.606 3.22681e-07 
665.137 3.22747e-07 
665.667 3.22813e-07 
666.197 3.2288e-07 
666.728 3.22946e-07 
667.258 3.23012e-07 
667.788 3.23079e-07 
668.318 3.23145e-07 
668.849 3.23212e-07 
669.379 3.23278e-07 
669.909 3.23345e-07 
670.439 3.23412e-07 
670.97 3.23479e-07 
671.5 3.23546e-07 
672.03 3.23613e-07 
672.561 3.23681e-07 
673.091 3.23748e-07 
673.621 3.23815e-07 
674.151 3.23883e-07 
674.682 3.2395e-07 
675.212 3.24018e-07 
675.742 3.24086e-07 
676.272 3.24153e-07 
676.803 3.24221e-07 
677.333 3.24289e-07 
677.863 3.24357e-07 
678.394 3.24426e-07 
678.924 3.24494e-07 
679.454 3.24562e-07 
679.984 3.2463e-07 
680.515 3.24699e-07 
681.045 3.24768e-07 
681.575 3.24836e-07 
682.105 3.24905e-07 
682.636 3.24974e-07 
683.166 3.25043e-07 
683.696 3.25112e-07 
684.227 3.2518e-07 
684.757 3.2525e-07 
685.287 3.25319e-07 
685.817 3.25388e-07 
686.348 3.25457e-07 
686.878 3.25527e-07 
687.408 3.25596e-07 
687.938 3.25665e-07 
688.469 3.25735e-07 
688.999 3.25805e-07 
689.529 3.25874e-07 
690.06 3.25944e-07 
690.59 3.26014e-07 
691.12 3.26084e-07 
691.65 3.26154e-07 
692.181 3.26224e-07 
692.711 3.26294e-07 
693.241 3.26364e-07 
693.771 3.26435e-07 
694.302 3.26505e-07 
694.832 3.26576e-07 
695.362 3.26646e-07 
695.893 3.26717e-07 
696.423 3.26788e-07 
696.953 3.26858e-07 
697.483 3.26929e-07 
698.014 3.27e-07 
698.544 3.27071e-07 
699.074 3.27143e-07 
699.604 3.27214e-07 
700.135 3.27285e-07 
700.665 3.27357e-07 
701.195 3.27428e-07 
701.726 3.275e-07 
702.256 3.27571e-07 
702.786 3.27643e-07 
703.316 3.27715e-07 
703.847 3.27787e-07 
704.377 3.27859e-07 
704.907 3.27932e-07 
705.438 3.28004e-07 
705.968 3.28076e-07 
706.498 3.28149e-07 
707.028 3.28222e-07 
707.559 3.28294e-07 
708.089 3.28367e-07 
708.619 3.2844e-07 
709.149 3.28513e-07 
709.68 3.28586e-07 
710.21 3.2866e-07 
710.74 3.28733e-07 
711.271 3.28807e-07 
711.801 3.2888e-07 
712.331 3.28954e-07 
712.861 3.29027e-07 
713.392 3.29101e-07 
713.922 3.29175e-07 
714.452 3.29249e-07 
714.982 3.29323e-07 
715.513 3.29397e-07 
716.043 3.29472e-07 
716.573 3.29546e-07 
717.104 3.29621e-07 
717.634 3.29695e-07 
718.164 3.2977e-07 
718.694 3.29844e-07 
719.225 3.29919e-07 
719.755 3.29994e-07 
720.285 3.30069e-07 
720.815 3.30144e-07 
721.346 3.30219e-07 
721.876 3.30294e-07 
722.406 3.30369e-07 
722.937 3.30445e-07 
723.467 3.3052e-07 
723.997 3.30596e-07 
724.527 3.30671e-07 
725.058 3.30747e-07 
725.588 3.30823e-07 
726.118 3.30899e-07 
726.648 3.30974e-07 
727.179 3.3105e-07 
727.709 3.31126e-07 
728.239 3.31203e-07 
728.77 3.31279e-07 
729.3 3.31355e-07 
729.83 3.31431e-07 
730.36 3.31508e-07 
730.891 3.31584e-07 
731.421 3.31661e-07 
731.951 3.31738e-07 
732.481 3.31815e-07 
733.012 3.31892e-07 
733.542 3.31969e-07 
734.072 3.32046e-07 
734.603 3.32123e-07 
735.133 3.32201e-07 
735.663 3.32278e-07 
736.193 3.32356e-07 
736.724 3.32434e-07 
737.254 3.32511e-07 
737.784 3.3259e-07 
738.314 3.32668e-07 
738.845 3.32746e-07 
739.375 3.32824e-07 
739.905 3.32903e-07 
740.436 3.32981e-07 
740.966 3.3306e-07 
741.496 3.33138e-07 
742.026 3.33217e-07 
742.557 3.33296e-07 
743.087 3.33375e-07 
743.617 3.33455e-07 
744.147 3.33534e-07 
744.678 3.33614e-07 
745.208 3.33693e-07 
745.738 3.33773e-07 
746.269 3.33853e-07 
746.799 3.33933e-07 
747.329 3.34013e-07 
747.859 3.34093e-07 
748.39 3.34173e-07 
748.92 3.34253e-07 
749.45 3.34334e-07 
749.98 3.34414e-07 
750.511 3.34495e-07 
751.041 3.34575e-07 
751.571 3.34656e-07 
752.102 3.34737e-07 
752.632 3.34818e-07 
753.162 3.34899e-07 
753.692 3.3498e-07 
754.223 3.35061e-07 
754.753 3.35143e-07 
755.283 3.35224e-07 
755.813 3.35306e-07 
756.344 3.35387e-07 
756.874 3.35469e-07 
757.404 3.35551e-07 
757.935 3.35633e-07 
758.465 3.35715e-07 
758.995 3.35797e-07 
759.525 3.35879e-07 
760.056 3.35961e-07 
760.586 3.36043e-07 
761.116 3.36126e-07 
761.646 3.36208e-07 
762.177 3.36291e-07 
762.707 3.36374e-07 
763.237 3.36457e-07 
763.768 3.36539e-07 
764.298 3.36622e-07 
764.828 3.36705e-07 
765.358 3.36789e-07 
765.889 3.36872e-07 
766.419 3.36955e-07 
766.949 3.37039e-07 
767.479 3.37123e-07 
768.01 3.37207e-07 
768.54 3.37291e-07 
769.07 3.37374e-07 
769.601 3.37459e-07 
770.131 3.37543e-07 
770.661 3.37627e-07 
771.191 3.37712e-07 
771.722 3.37797e-07 
772.252 3.37881e-07 
772.782 3.37966e-07 
773.312 3.38052e-07 
773.843 3.38137e-07 
774.373 3.38222e-07 
774.903 3.38307e-07 
775.434 3.38393e-07 
775.964 3.38479e-07 
776.494 3.38564e-07 
777.024 3.3865e-07 
777.555 3.38736e-07 
778.085 3.38823e-07 
778.615 3.38909e-07 
779.146 3.38995e-07 
779.676 3.39082e-07 
780.206 3.39169e-07 
780.736 3.39256e-07 
781.267 3.39342e-07 
781.797 3.39429e-07 
782.327 3.39517e-07 
782.857 3.39604e-07 
783.388 3.39691e-07 
783.918 3.39779e-07 
784.448 3.39866e-07 
784.979 3.39954e-07 
785.509 3.40042e-07 
786.039 3.4013e-07 
786.569 3.40218e-07 
787.1 3.40306e-07 
787.63 3.40394e-07 
788.16 3.40483e-07 
788.69 3.40571e-07 
789.221 3.4066e-07 
789.751 3.40748e-07 
790.281 3.40837e-07 
790.812 3.40926e-07 
791.342 3.41015e-07 
791.872 3.41104e-07 
792.402 3.41193e-07 
792.933 3.41282e-07 
793.463 3.41372e-07 
793.993 3.41461e-07 
794.523 3.41551e-07 
795.054 3.4164e-07 
795.584 3.4173e-07 
796.114 3.4182e-07 
796.645 3.4191e-07 
797.175 3.42e-07 
797.705 3.42091e-07 
798.235 3.42181e-07 
798.766 3.42271e-07 
799.296 3.42362e-07 
799.826 3.42453e-07 
800.356 3.42544e-07 
800.887 3.42635e-07 
801.417 3.42726e-07 
801.947 3.42817e-07 
802.478 3.42908e-07 
803.008 3.43e-07 
803.538 3.43092e-07 
804.068 3.43184e-07 
804.599 3.43276e-07 
805.129 3.43368e-07 
805.659 3.4346e-07 
806.189 3.43552e-07 
806.72 3.43645e-07 
807.25 3.43738e-07 
807.78 3.4383e-07 
808.311 3.43924e-07 
808.841 3.44017e-07 
809.371 3.4411e-07 
809.901 3.44203e-07 
810.432 3.44297e-07 
810.962 3.44391e-07 
811.492 3.44485e-07 
812.022 3.44579e-07 
812.553 3.44673e-07 
813.083 3.44767e-07 
813.613 3.44861e-07 
814.144 3.44956e-07 
814.674 3.45051e-07 
815.204 3.45145e-07 
815.734 3.4524e-07 
816.265 3.45335e-07 
816.795 3.4543e-07 
817.325 3.45526e-07 
817.855 3.45621e-07 
818.386 3.45717e-07 
818.916 3.45812e-07 
819.446 3.45908e-07 
819.977 3.46004e-07 
820.507 3.461e-07 
821.037 3.46196e-07 
821.567 3.46292e-07 
822.098 3.46388e-07 
822.628 3.46485e-07 
823.158 3.46581e-07 
823.688 3.46678e-07 
824.219 3.46775e-07 
824.749 3.46872e-07 
825.279 3.46969e-07 
825.81 3.47066e-07 
826.34 3.47163e-07 
826.87 3.4726e-07 
827.4 3.47358e-07 
827.931 3.47456e-07 
828.461 3.47554e-07 
828.991 3.47651e-07 
829.521 3.4775e-07 
830.052 3.47848e-07 
830.582 3.47946e-07 
831.112 3.48044e-07 
831.643 3.48143e-07 
832.173 3.48242e-07 
832.703 3.48341e-07 
833.233 3.4844e-07 
833.764 3.48539e-07 
834.294 3.48638e-07 
834.824 3.48738e-07 
835.354 3.48837e-07 
835.885 3.48937e-07 
836.415 3.49037e-07 
836.945 3.49137e-07 
837.476 3.49238e-07 
838.006 3.49338e-07 
838.536 3.49439e-07 
839.066 3.4954e-07 
839.597 3.49641e-07 
840.127 3.49742e-07 
840.657 3.49843e-07 
841.188 3.49944e-07 
841.718 3.50046e-07 
842.248 3.50148e-07 
842.778 3.5025e-07 
843.309 3.50352e-07 
843.839 3.50454e-07 
844.369 3.50557e-07 
844.899 3.50659e-07 
845.43 3.50762e-07 
845.96 3.50865e-07 
846.49 3.50968e-07 
847.021 3.51071e-07 
847.551 3.51174e-07 
848.081 3.51278e-07 
848.611 3.51381e-07 
849.142 3.51485e-07 
849.672 3.51589e-07 
850.202 3.51693e-07 
850.732 3.51797e-07 
851.263 3.51901e-07 
851.793 3.52005e-07 
852.323 3.5211e-07 
852.854 3.52215e-07 
853.384 3.52319e-07 
853.914 3.52424e-07 
854.444 3.52529e-07 
854.975 3.52634e-07 
855.505 3.52739e-07 
856.035 3.52845e-07 
856.565 3.5295e-07 
857.096 3.53056e-07 
857.626 3.53162e-07 
858.156 3.53268e-07 
858.687 3.53374e-07 
859.217 3.5348e-07 
859.747 3.53586e-07 
860.277 3.53693e-07 
860.808 3.538e-07 
861.338 3.53906e-07 
861.868 3.54013e-07 
862.398 3.5412e-07 
862.929 3.54228e-07 
863.459 3.54335e-07 
863.989 3.54443e-07 
864.52 3.54551e-07 
865.05 3.54659e-07 
865.58 3.54767e-07 
866.11 3.54875e-07 
866.641 3.54984e-07 
867.171 3.55093e-07 
867.701 3.55202e-07 
868.231 3.55311e-07 
868.762 3.5542e-07 
869.292 3.55529e-07 
869.822 3.55639e-07 
870.353 3.55749e-07 
870.883 3.55859e-07 
871.413 3.55969e-07 
871.943 3.5608e-07 
872.474 3.5619e-07 
873.004 3.56301e-07 
873.534 3.56412e-07 
874.064 3.56523e-07 
874.595 3.56635e-07 
875.125 3.56746e-07 
875.655 3.56858e-07 
876.186 3.5697e-07 
876.716 3.57082e-07 
877.246 3.57194e-07 
877.776 3.57307e-07 
878.307 3.57419e-07 
878.837 3.57532e-07 
879.367 3.57645e-07 
879.897 3.57758e-07 
880.428 3.57871e-07 
880.958 3.57984e-07 
881.488 3.58098e-07 
882.019 3.58211e-07 
882.549 3.58325e-07 
883.079 3.58439e-07 
883.609 3.58553e-07 
884.14 3.58667e-07 
884.67 3.58781e-07 
885.2 3.58896e-07 
885.73 3.5901e-07 
886.261 3.59125e-07 
886.791 3.59239e-07 
887.321 3.59354e-07 
887.852 3.5947e-07 
888.382 3.59585e-07 
888.912 3.597e-07 
889.442 3.59816e-07 
889.973 3.59932e-07 
890.503 3.60048e-07 
891.033 3.60164e-07 
891.563 3.6028e-07 
892.094 3.60396e-07 
892.624 3.60513e-07 
893.154 3.6063e-07 
893.685 3.60747e-07 
894.215 3.60864e-07 
894.745 3.60981e-07 
895.275 3.61099e-07 
895.806 3.61217e-07 
896.336 3.61335e-07 
896.866 3.61453e-07 
897.396 3.61571e-07 
897.927 3.6169e-07 
898.457 3.61809e-07 
898.987 3.61928e-07 
899.518 3.62047e-07 
900.048 3.62167e-07 
900.578 3.62287e-07 
901.108 3.62407e-07 
901.639 3.62527e-07 
902.169 3.62647e-07 
902.699 3.62768e-07 
903.229 3.62889e-07 
903.76 3.6301e-07 
904.29 3.63132e-07 
904.82 3.63253e-07 
905.351 3.63375e-07 
905.881 3.63497e-07 
906.411 3.63619e-07 
906.941 3.63742e-07 
907.472 3.63864e-07 
908.002 3.63987e-07 
908.532 3.6411e-07 
909.062 3.64233e-07 
909.593 3.64356e-07 
