#energy geo_1 
400 2.0619e-06 
400.53 2.06476e-06 
401.061 2.06734e-06 
401.591 2.06955e-06 
402.121 2.07134e-06 
402.651 2.07275e-06 
403.182 2.07388e-06 
403.712 2.07486e-06 
404.242 2.07584e-06 
404.772 2.07695e-06 
405.303 2.07831e-06 
405.833 2.08003e-06 
406.363 2.08226e-06 
406.894 2.08514e-06 
407.424 2.08885e-06 
407.954 2.09361e-06 
408.484 2.0997e-06 
409.015 2.1075e-06 
409.545 2.11754e-06 
410.075 2.13046e-06 
410.605 2.14714e-06 
411.136 2.16865e-06 
411.666 2.19637e-06 
412.196 2.23192e-06 
412.727 2.27715e-06 
413.257 2.33372e-06 
413.787 2.40233e-06 
414.317 2.48123e-06 
414.848 2.56409e-06 
415.378 2.63858e-06 
415.908 2.68831e-06 
416.438 2.70013e-06 
416.969 2.67253e-06 
417.499 2.61701e-06 
418.029 2.55096e-06 
418.56 2.48937e-06 
419.09 2.44124e-06 
419.62 2.4101e-06 
420.15 2.39547e-06 
420.681 2.39355e-06 
421.211 2.39717e-06 
421.741 2.39653e-06 
422.271 2.38226e-06 
422.802 2.35004e-06 
423.332 2.3028e-06 
423.862 2.24809e-06 
424.393 2.19346e-06 
424.923 2.14376e-06 
425.453 2.10095e-06 
425.983 2.06517e-06 
426.514 2.03569e-06 
427.044 2.01152e-06 
427.574 1.99168e-06 
428.104 1.97536e-06 
428.635 1.96186e-06 
429.165 1.95064e-06 
429.695 1.94127e-06 
430.226 1.93341e-06 
430.756 1.92679e-06 
431.286 1.9212e-06 
431.816 1.91646e-06 
432.347 1.91243e-06 
432.877 1.90899e-06 
433.407 1.90604e-06 
433.938 1.90351e-06 
434.468 1.90131e-06 
434.998 1.89939e-06 
435.528 1.89768e-06 
436.059 1.89615e-06 
436.589 1.89476e-06 
437.119 1.89347e-06 
437.649 1.89227e-06 
438.18 1.89116e-06 
438.71 1.89012e-06 
439.24 1.88917e-06 
439.771 1.88829e-06 
440.301 1.88751e-06 
440.831 1.88682e-06 
441.361 1.88624e-06 
441.892 1.88577e-06 
442.422 1.88544e-06 
442.952 1.88525e-06 
443.482 1.88523e-06 
444.013 1.88537e-06 
444.543 1.88569e-06 
445.073 1.8862e-06 
445.604 1.88689e-06 
446.134 1.88777e-06 
446.664 1.88882e-06 
447.194 1.89002e-06 
447.725 1.89134e-06 
448.255 1.89276e-06 
448.785 1.8942e-06 
449.315 1.89564e-06 
449.846 1.89699e-06 
450.376 1.89823e-06 
450.906 1.89932e-06 
451.437 1.90023e-06 
451.967 1.901e-06 
452.497 1.90166e-06 
453.027 1.90225e-06 
453.558 1.90284e-06 
454.088 1.90349e-06 
454.618 1.90427e-06 
455.148 1.90523e-06 
455.679 1.90644e-06 
456.209 1.90798e-06 
456.739 1.90992e-06 
457.27 1.91234e-06 
457.8 1.91531e-06 
458.33 1.91892e-06 
458.86 1.9233e-06 
459.391 1.92862e-06 
459.921 1.93509e-06 
460.451 1.943e-06 
460.981 1.95272e-06 
461.512 1.96469e-06 
462.042 1.97943e-06 
462.572 1.99738e-06 
463.103 2.01868e-06 
463.633 2.04269e-06 
464.163 2.06726e-06 
464.693 2.08828e-06 
465.224 2.1004e-06 
465.754 2.09956e-06 
466.284 2.08574e-06 
466.814 2.06293e-06 
467.345 2.03653e-06 
467.875 2.01072e-06 
468.405 1.98777e-06 
468.936 1.96842e-06 
469.466 1.95259e-06 
469.996 1.93988e-06 
470.526 1.9298e-06 
471.057 1.92191e-06 
471.587 1.91584e-06 
472.117 1.91128e-06 
472.647 1.90798e-06 
473.178 1.90574e-06 
473.708 1.90437e-06 
474.238 1.90369e-06 
474.769 1.90355e-06 
475.299 1.90376e-06 
475.829 1.90417e-06 
476.359 1.90461e-06 
476.89 1.90495e-06 
477.42 1.90508e-06 
477.95 1.90495e-06 
478.48 1.90456e-06 
479.011 1.90398e-06 
479.541 1.90328e-06 
480.071 1.90257e-06 
480.602 1.90196e-06 
481.132 1.90157e-06 
481.662 1.90151e-06 
482.192 1.90193e-06 
482.723 1.90296e-06 
483.253 1.90477e-06 
483.783 1.90752e-06 
484.313 1.91137e-06 
484.844 1.91656e-06 
485.374 1.92335e-06 
485.904 1.93213e-06 
486.435 1.94339e-06 
486.965 1.95776e-06 
487.495 1.97605e-06 
488.025 1.99926e-06 
488.556 2.02848e-06 
489.086 2.06466e-06 
489.616 2.10809e-06 
490.146 2.15736e-06 
490.677 2.20794e-06 
491.207 2.25131e-06 
491.737 2.27648e-06 
492.268 2.27531e-06 
492.798 2.24793e-06 
493.328 2.20256e-06 
493.858 2.15004e-06 
494.389 2.09877e-06 
494.919 2.05315e-06 
495.449 2.01457e-06 
495.979 1.98276e-06 
496.51 1.95679e-06 
497.04 1.93561e-06 
497.57 1.91826e-06 
498.101 1.90395e-06 
498.631 1.89205e-06 
499.161 1.88208e-06 
499.691 1.87365e-06 
500.222 1.86649e-06 
500.752 1.86037e-06 
501.282 1.85513e-06 
501.812 1.85065e-06 
502.343 1.84685e-06 
502.873 1.84365e-06 
503.403 1.84101e-06 
503.934 1.83888e-06 
504.464 1.83723e-06 
504.994 1.83604e-06 
505.524 1.83528e-06 
506.055 1.83491e-06 
506.585 1.83489e-06 
507.115 1.83517e-06 
507.646 1.8357e-06 
508.176 1.83639e-06 
508.706 1.83716e-06 
509.236 1.83791e-06 
509.767 1.83855e-06 
510.297 1.83901e-06 
510.827 1.83923e-06 
511.357 1.83921e-06 
511.888 1.83896e-06 
512.418 1.83854e-06 
512.948 1.83803e-06 
513.479 1.8375e-06 
514.009 1.83706e-06 
514.539 1.83677e-06 
515.069 1.83675e-06 
515.6 1.8371e-06 
516.13 1.83793e-06 
516.66 1.83935e-06 
517.19 1.84148e-06 
517.721 1.84447e-06 
518.251 1.84848e-06 
518.781 1.85374e-06 
519.312 1.86054e-06 
519.842 1.86929e-06 
520.372 1.88047e-06 
520.902 1.89473e-06 
521.433 1.91282e-06 
521.963 1.93549e-06 
522.493 1.96331e-06 
523.023 1.9961e-06 
523.554 2.03214e-06 
524.084 2.06722e-06 
524.614 2.09453e-06 
525.145 2.10673e-06 
525.675 2.0998e-06 
526.205 2.07563e-06 
526.735 2.04076e-06 
527.266 2.00251e-06 
527.796 1.96612e-06 
528.326 1.9342e-06 
528.856 1.90743e-06 
529.387 1.88551e-06 
529.917 1.86773e-06 
530.447 1.85336e-06 
530.978 1.84172e-06 
531.508 1.83225e-06 
532.038 1.82452e-06 
532.568 1.81816e-06 
533.099 1.81292e-06 
533.629 1.80857e-06 
534.159 1.80495e-06 
534.689 1.80193e-06 
535.22 1.7994e-06 
535.75 1.79728e-06 
536.28 1.79551e-06 
536.811 1.79404e-06 
537.341 1.7928e-06 
537.871 1.79179e-06 
538.401 1.79095e-06 
538.932 1.79027e-06 
539.462 1.78972e-06 
539.992 1.7893e-06 
540.522 1.78898e-06 
541.053 1.78875e-06 
541.583 1.78861e-06 
542.113 1.78854e-06 
542.644 1.78853e-06 
543.174 1.78858e-06 
543.704 1.78868e-06 
544.234 1.78883e-06 
544.765 1.78903e-06 
545.295 1.78926e-06 
545.825 1.78952e-06 
546.355 1.78982e-06 
546.886 1.79015e-06 
547.416 1.7905e-06 
547.946 1.79088e-06 
548.477 1.79129e-06 
549.007 1.79171e-06 
549.537 1.79215e-06 
550.067 1.79261e-06 
550.598 1.79309e-06 
551.128 1.79359e-06 
551.658 1.7941e-06 
552.188 1.79462e-06 
552.719 1.79516e-06 
553.249 1.7957e-06 
553.779 1.79626e-06 
554.31 1.79683e-06 
554.84 1.79741e-06 
555.37 1.79801e-06 
555.9 1.7986e-06 
556.431 1.79921e-06 
556.961 1.79983e-06 
557.491 1.80045e-06 
558.021 1.80108e-06 
558.552 1.80172e-06 
559.082 1.80237e-06 
559.612 1.80302e-06 
560.143 1.80368e-06 
560.673 1.80435e-06 
561.203 1.80502e-06 
561.733 1.80569e-06 
562.264 1.80637e-06 
562.794 1.80706e-06 
563.324 1.80775e-06 
563.854 1.80845e-06 
564.385 1.80915e-06 
564.915 1.80985e-06 
565.445 1.81057e-06 
565.976 1.81128e-06 
566.506 1.812e-06 
567.036 1.81272e-06 
567.566 1.81345e-06 
568.097 1.81418e-06 
568.627 1.81491e-06 
569.157 1.81565e-06 
569.688 1.81639e-06 
570.218 1.81714e-06 
570.748 1.81789e-06 
571.278 1.81864e-06 
571.809 1.81939e-06 
572.339 1.82015e-06 
572.869 1.82091e-06 
573.399 1.82168e-06 
573.93 1.82245e-06 
574.46 1.82322e-06 
574.99 1.82399e-06 
575.521 1.82477e-06 
576.051 1.82554e-06 
576.581 1.82633e-06 
577.111 1.82711e-06 
577.642 1.8279e-06 
578.172 1.82869e-06 
578.702 1.82948e-06 
579.232 1.83028e-06 
579.763 1.83107e-06 
580.293 1.83187e-06 
580.823 1.83267e-06 
581.354 1.83348e-06 
581.884 1.83428e-06 
582.414 1.83509e-06 
582.944 1.8359e-06 
583.475 1.83672e-06 
584.005 1.83753e-06 
584.535 1.83835e-06 
585.065 1.83917e-06 
585.596 1.83999e-06 
586.126 1.84081e-06 
586.656 1.84164e-06 
587.187 1.84247e-06 
587.717 1.8433e-06 
588.247 1.84413e-06 
588.777 1.84497e-06 
589.308 1.8458e-06 
589.838 1.84664e-06 
590.368 1.84748e-06 
590.898 1.84832e-06 
591.429 1.84917e-06 
591.959 1.85002e-06 
592.489 1.85086e-06 
593.02 1.85172e-06 
593.55 1.85257e-06 
594.08 1.85343e-06 
594.61 1.85428e-06 
595.141 1.85514e-06 
595.671 1.85601e-06 
596.201 1.85687e-06 
596.731 1.85774e-06 
597.262 1.85861e-06 
597.792 1.85948e-06 
598.322 1.86035e-06 
598.853 1.86123e-06 
599.383 1.8621e-06 
599.913 1.86298e-06 
600.443 1.86386e-06 
600.974 1.86475e-06 
601.504 1.86564e-06 
602.034 1.86652e-06 
602.564 1.86741e-06 
603.095 1.86831e-06 
603.625 1.8692e-06 
604.155 1.8701e-06 
604.686 1.871e-06 
605.216 1.8719e-06 
605.746 1.8728e-06 
606.276 1.87371e-06 
606.807 1.87461e-06 
607.337 1.87552e-06 
607.867 1.87643e-06 
608.397 1.87734e-06 
608.928 1.87826e-06 
609.458 1.87917e-06 
609.988 1.88009e-06 
610.519 1.88101e-06 
611.049 1.88193e-06 
611.579 1.88285e-06 
612.109 1.88378e-06 
612.64 1.8847e-06 
613.17 1.88563e-06 
613.7 1.88656e-06 
614.23 1.88749e-06 
614.761 1.88842e-06 
615.291 1.88936e-06 
615.821 1.89029e-06 
616.352 1.89123e-06 
616.882 1.89217e-06 
617.412 1.89311e-06 
617.942 1.89405e-06 
618.473 1.895e-06 
619.003 1.89595e-06 
619.533 1.8969e-06 
620.063 1.89785e-06 
620.594 1.8988e-06 
621.124 1.89976e-06 
621.654 1.90071e-06 
622.185 1.90167e-06 
622.715 1.90263e-06 
623.245 1.9036e-06 
623.775 1.90456e-06 
624.306 1.90553e-06 
624.836 1.9065e-06 
625.366 1.90748e-06 
625.896 1.90845e-06 
626.427 1.90943e-06 
626.957 1.91041e-06 
627.487 1.91139e-06 
628.018 1.91238e-06 
628.548 1.91336e-06 
629.078 1.91435e-06 
629.608 1.91534e-06 
630.139 1.91634e-06 
630.669 1.91733e-06 
631.199 1.91833e-06 
631.729 1.91933e-06 
632.26 1.92033e-06 
632.79 1.92134e-06 
633.32 1.92235e-06 
633.851 1.92336e-06 
634.381 1.92437e-06 
634.911 1.92538e-06 
635.441 1.92639e-06 
635.972 1.92741e-06 
636.502 1.92843e-06 
637.032 1.92945e-06 
637.562 1.93047e-06 
638.093 1.9315e-06 
638.623 1.93252e-06 
639.153 1.93355e-06 
639.684 1.93458e-06 
640.214 1.93561e-06 
640.744 1.93664e-06 
641.274 1.93767e-06 
641.805 1.93871e-06 
642.335 1.93975e-06 
642.865 1.94079e-06 
643.396 1.94183e-06 
643.926 1.94287e-06 
644.456 1.94392e-06 
644.986 1.94497e-06 
645.517 1.94601e-06 
646.047 1.94707e-06 
646.577 1.94812e-06 
647.107 1.94917e-06 
647.638 1.95023e-06 
648.168 1.95129e-06 
648.698 1.95235e-06 
649.229 1.95342e-06 
649.759 1.95448e-06 
650.289 1.95555e-06 
650.819 1.95663e-06 
651.35 1.9577e-06 
651.88 1.95878e-06 
652.41 1.95986e-06 
652.94 1.96094e-06 
653.471 1.96203e-06 
654.001 1.96312e-06 
654.531 1.96421e-06 
655.062 1.9653e-06 
655.592 1.9664e-06 
656.122 1.96749e-06 
656.652 1.9686e-06 
657.183 1.9697e-06 
657.713 1.97081e-06 
658.243 1.97192e-06 
658.773 1.97303e-06 
659.304 1.97414e-06 
659.834 1.97526e-06 
660.364 1.97638e-06 
660.895 1.9775e-06 
661.425 1.97862e-06 
661.955 1.97974e-06 
662.485 1.98087e-06 
663.016 1.982e-06 
663.546 1.98313e-06 
664.076 1.98427e-06 
664.606 1.9854e-06 
665.137 1.98654e-06 
665.667 1.98768e-06 
666.197 1.98882e-06 
666.728 1.98996e-06 
667.258 1.99111e-06 
667.788 1.99225e-06 
668.318 1.9934e-06 
668.849 1.99456e-06 
669.379 1.99571e-06 
669.909 1.99686e-06 
670.439 1.99802e-06 
670.97 1.99918e-06 
671.5 2.00035e-06 
672.03 2.00151e-06 
672.561 2.00268e-06 
673.091 2.00385e-06 
673.621 2.00502e-06 
674.151 2.0062e-06 
674.682 2.00738e-06 
675.212 2.00856e-06 
675.742 2.00974e-06 
676.272 2.01093e-06 
676.803 2.01212e-06 
677.333 2.01331e-06 
677.863 2.01451e-06 
678.394 2.01571e-06 
678.924 2.01691e-06 
679.454 2.01811e-06 
679.984 2.01932e-06 
680.515 2.02053e-06 
681.045 2.02174e-06 
681.575 2.02296e-06 
682.105 2.02418e-06 
682.636 2.0254e-06 
683.166 2.02662e-06 
683.696 2.02785e-06 
684.227 2.02908e-06 
684.757 2.03031e-06 
685.287 2.03154e-06 
685.817 2.03278e-06 
686.348 2.03402e-06 
686.878 2.03526e-06 
687.408 2.03651e-06 
687.938 2.03775e-06 
688.469 2.03901e-06 
688.999 2.04026e-06 
689.529 2.04151e-06 
690.06 2.04277e-06 
690.59 2.04403e-06 
691.12 2.04529e-06 
691.65 2.04656e-06 
692.181 2.04783e-06 
692.711 2.0491e-06 
693.241 2.05038e-06 
693.771 2.05165e-06 
694.302 2.05293e-06 
694.832 2.05421e-06 
695.362 2.0555e-06 
695.893 2.05679e-06 
696.423 2.05808e-06 
696.953 2.05937e-06 
697.483 2.06067e-06 
698.014 2.06197e-06 
698.544 2.06327e-06 
699.074 2.06458e-06 
699.604 2.06589e-06 
700.135 2.0672e-06 
700.665 2.06852e-06 
701.195 2.06984e-06 
701.726 2.07116e-06 
702.256 2.07248e-06 
702.786 2.07381e-06 
703.316 2.07514e-06 
703.847 2.07648e-06 
704.377 2.07781e-06 
704.907 2.07915e-06 
705.438 2.08049e-06 
705.968 2.08184e-06 
706.498 2.08319e-06 
707.028 2.08454e-06 
707.559 2.08589e-06 
708.089 2.08725e-06 
708.619 2.08861e-06 
709.149 2.08997e-06 
709.68 2.09134e-06 
710.21 2.09271e-06 
710.74 2.09408e-06 
711.271 2.09546e-06 
711.801 2.09684e-06 
712.331 2.09822e-06 
712.861 2.09961e-06 
713.392 2.101e-06 
713.922 2.1024e-06 
714.452 2.10379e-06 
714.982 2.1052e-06 
715.513 2.1066e-06 
716.043 2.10801e-06 
716.573 2.10942e-06 
717.104 2.11084e-06 
717.634 2.11226e-06 
718.164 2.11368e-06 
718.694 2.11511e-06 
719.225 2.11654e-06 
719.755 2.11797e-06 
720.285 2.11941e-06 
720.815 2.12085e-06 
721.346 2.1223e-06 
721.876 2.12374e-06 
722.406 2.1252e-06 
722.937 2.12665e-06 
723.467 2.12811e-06 
723.997 2.12957e-06 
724.527 2.13103e-06 
725.058 2.1325e-06 
725.588 2.13396e-06 
726.118 2.13544e-06 
726.648 2.13691e-06 
727.179 2.13839e-06 
727.709 2.13987e-06 
728.239 2.14136e-06 
728.77 2.14284e-06 
729.3 2.14433e-06 
729.83 2.14583e-06 
730.36 2.14733e-06 
730.891 2.14883e-06 
731.421 2.15034e-06 
731.951 2.15185e-06 
732.481 2.15336e-06 
733.012 2.15489e-06 
733.542 2.15641e-06 
734.072 2.15794e-06 
734.603 2.15947e-06 
735.133 2.16101e-06 
735.663 2.16256e-06 
736.193 2.1641e-06 
736.724 2.16566e-06 
737.254 2.16721e-06 
737.784 2.16878e-06 
738.314 2.17034e-06 
738.845 2.17192e-06 
739.375 2.17349e-06 
739.905 2.17507e-06 
740.436 2.17665e-06 
740.966 2.17824e-06 
741.496 2.17983e-06 
742.026 2.18143e-06 
742.557 2.18303e-06 
743.087 2.18463e-06 
743.617 2.18623e-06 
744.147 2.18784e-06 
744.678 2.18945e-06 
745.208 2.19107e-06 
745.738 2.19269e-06 
746.269 2.19431e-06 
746.799 2.19594e-06 
747.329 2.19756e-06 
747.859 2.1992e-06 
748.39 2.20084e-06 
748.92 2.20248e-06 
749.45 2.20412e-06 
749.98 2.20578e-06 
750.511 2.20743e-06 
751.041 2.20909e-06 
751.571 2.21076e-06 
752.102 2.21243e-06 
752.632 2.21411e-06 
753.162 2.21579e-06 
753.692 2.21748e-06 
754.223 2.21917e-06 
754.753 2.22087e-06 
755.283 2.22258e-06 
755.813 2.22429e-06 
756.344 2.226e-06 
756.874 2.22772e-06 
757.404 2.22944e-06 
757.935 2.23117e-06 
758.465 2.23291e-06 
758.995 2.23465e-06 
759.525 2.23639e-06 
760.056 2.23814e-06 
760.586 2.23989e-06 
761.116 2.24164e-06 
761.646 2.2434e-06 
762.177 2.24517e-06 
762.707 2.24693e-06 
763.237 2.24871e-06 
763.768 2.25049e-06 
764.298 2.25227e-06 
764.828 2.25406e-06 
765.358 2.25585e-06 
765.889 2.25765e-06 
766.419 2.25946e-06 
766.949 2.26127e-06 
767.479 2.26309e-06 
768.01 2.26491e-06 
768.54 2.26674e-06 
769.07 2.26858e-06 
769.601 2.27042e-06 
770.131 2.27227e-06 
770.661 2.27412e-06 
771.191 2.27598e-06 
771.722 2.27784e-06 
772.252 2.27972e-06 
772.782 2.28159e-06 
773.312 2.28347e-06 
773.843 2.28535e-06 
774.373 2.28724e-06 
774.903 2.28913e-06 
775.434 2.29103e-06 
775.964 2.29294e-06 
776.494 2.29485e-06 
777.024 2.29676e-06 
777.555 2.29868e-06 
778.085 2.30061e-06 
778.615 2.30254e-06 
779.146 2.30448e-06 
779.676 2.30642e-06 
780.206 2.30838e-06 
780.736 2.31034e-06 
781.267 2.31231e-06 
781.797 2.31429e-06 
782.327 2.31627e-06 
782.857 2.31827e-06 
783.388 2.32027e-06 
783.918 2.32228e-06 
784.448 2.3243e-06 
784.979 2.32632e-06 
785.509 2.32835e-06 
786.039 2.33039e-06 
786.569 2.33244e-06 
787.1 2.33449e-06 
787.63 2.33655e-06 
788.16 2.33861e-06 
788.69 2.34067e-06 
789.221 2.34275e-06 
789.751 2.34482e-06 
790.281 2.3469e-06 
790.812 2.34899e-06 
791.342 2.35108e-06 
791.872 2.35318e-06 
792.402 2.35529e-06 
792.933 2.3574e-06 
793.463 2.35951e-06 
793.993 2.36164e-06 
794.523 2.36377e-06 
795.054 2.36591e-06 
795.584 2.36806e-06 
796.114 2.37022e-06 
796.645 2.37238e-06 
797.175 2.37455e-06 
797.705 2.37673e-06 
798.235 2.37892e-06 
798.766 2.38112e-06 
799.296 2.38332e-06 
799.826 2.38553e-06 
800.356 2.38775e-06 
800.887 2.38998e-06 
801.417 2.39221e-06 
801.947 2.39445e-06 
802.478 2.39669e-06 
803.008 2.39895e-06 
803.538 2.40121e-06 
804.068 2.40348e-06 
804.599 2.40577e-06 
805.129 2.40806e-06 
805.659 2.41036e-06 
806.189 2.41268e-06 
806.72 2.41501e-06 
807.25 2.41735e-06 
807.78 2.41971e-06 
808.311 2.42208e-06 
808.841 2.42446e-06 
809.371 2.42685e-06 
809.901 2.42926e-06 
810.432 2.43167e-06 
810.962 2.43409e-06 
811.492 2.43653e-06 
812.022 2.43897e-06 
812.553 2.44142e-06 
813.083 2.44387e-06 
813.613 2.44633e-06 
814.144 2.4488e-06 
814.674 2.45127e-06 
815.204 2.45376e-06 
815.734 2.45625e-06 
816.265 2.45876e-06 
816.795 2.46128e-06 
817.325 2.46381e-06 
817.855 2.46637e-06 
818.386 2.46894e-06 
818.916 2.47153e-06 
819.446 2.47414e-06 
819.977 2.47678e-06 
820.507 2.47943e-06 
821.037 2.48211e-06 
821.567 2.4848e-06 
822.098 2.4875e-06 
822.628 2.49021e-06 
823.158 2.49292e-06 
823.688 2.49564e-06 
824.219 2.49834e-06 
824.749 2.50104e-06 
825.279 2.50372e-06 
825.81 2.50639e-06 
826.34 2.50904e-06 
826.87 2.51168e-06 
827.4 2.51431e-06 
827.931 2.51693e-06 
828.461 2.51954e-06 
828.991 2.52214e-06 
829.521 2.52474e-06 
830.052 2.52734e-06 
830.582 2.52994e-06 
831.112 2.53255e-06 
831.643 2.53518e-06 
832.173 2.53783e-06 
832.703 2.5405e-06 
833.233 2.5432e-06 
833.764 2.54593e-06 
834.294 2.54869e-06 
834.824 2.55149e-06 
835.354 2.55432e-06 
835.885 2.55719e-06 
836.415 2.56009e-06 
836.945 2.56302e-06 
837.476 2.56599e-06 
838.006 2.56898e-06 
838.536 2.57201e-06 
839.066 2.57507e-06 
839.597 2.57815e-06 
840.127 2.58127e-06 
840.657 2.58442e-06 
841.188 2.5876e-06 
841.718 2.59082e-06 
842.248 2.59407e-06 
842.778 2.59736e-06 
843.309 2.60069e-06 
843.839 2.60406e-06 
844.369 2.60747e-06 
844.899 2.61092e-06 
845.43 2.61441e-06 
845.96 2.61794e-06 
846.49 2.6215e-06 
847.021 2.6251e-06 
847.551 2.62872e-06 
848.081 2.63236e-06 
848.611 2.63603e-06 
849.142 2.63971e-06 
849.672 2.6434e-06 
850.202 2.6471e-06 
850.732 2.65081e-06 
851.263 2.65453e-06 
851.793 2.65827e-06 
852.323 2.66202e-06 
852.854 2.66578e-06 
853.384 2.66957e-06 
853.914 2.67337e-06 
854.444 2.6772e-06 
854.975 2.68104e-06 
855.505 2.68489e-06 
856.035 2.68875e-06 
856.565 2.69262e-06 
857.096 2.69648e-06 
857.626 2.70034e-06 
858.156 2.70419e-06 
858.687 2.70804e-06 
859.217 2.71189e-06 
859.747 2.71574e-06 
860.277 2.7196e-06 
860.808 2.72348e-06 
861.338 2.72738e-06 
861.868 2.7313e-06 
862.398 2.73523e-06 
862.929 2.73916e-06 
863.459 2.74308e-06 
863.989 2.74697e-06 
864.52 2.75081e-06 
865.05 2.75459e-06 
865.58 2.7583e-06 
866.11 2.76192e-06 
866.641 2.76546e-06 
867.171 2.76893e-06 
867.701 2.77234e-06 
868.231 2.7757e-06 
868.762 2.77904e-06 
869.292 2.78236e-06 
869.822 2.78567e-06 
870.353 2.78899e-06 
870.883 2.79232e-06 
871.413 2.79566e-06 
871.943 2.79904e-06 
872.474 2.80247e-06 
873.004 2.80598e-06 
873.534 2.80962e-06 
874.064 2.81343e-06 
874.595 2.81746e-06 
875.125 2.82174e-06 
875.655 2.82629e-06 
876.186 2.83112e-06 
876.716 2.83619e-06 
877.246 2.84149e-06 
877.776 2.84698e-06 
878.307 2.85261e-06 
878.837 2.85838e-06 
879.367 2.86425e-06 
879.897 2.8702e-06 
880.428 2.87622e-06 
880.958 2.88228e-06 
881.488 2.88835e-06 
882.019 2.89435e-06 
882.549 2.90026e-06 
883.079 2.90604e-06 
883.609 2.91171e-06 
884.14 2.91731e-06 
884.67 2.92298e-06 
885.2 2.92885e-06 
885.73 2.93502e-06 
886.261 2.94162e-06 
886.791 2.94873e-06 
887.321 2.95638e-06 
887.852 2.96457e-06 
888.382 2.9734e-06 
888.912 2.983e-06 
889.442 2.99352e-06 
889.973 3.00516e-06 
890.503 3.01805e-06 
891.033 3.03216e-06 
891.563 3.04724e-06 
892.094 3.06303e-06 
892.624 3.0793e-06 
893.154 3.09596e-06 
893.685 3.11302e-06 
894.215 3.13038e-06 
894.745 3.14752e-06 
895.275 3.16326e-06 
895.806 3.17591e-06 
896.336 3.18368e-06 
896.866 3.18552e-06 
897.396 3.18158e-06 
897.927 3.1728e-06 
898.457 3.16044e-06 
898.987 3.14583e-06 
899.518 3.12994e-06 
900.048 3.11315e-06 
900.578 3.09529e-06 
901.108 3.07597e-06 
901.639 3.05526e-06 
902.169 3.03434e-06 
902.699 3.01538e-06 
903.229 3.00023e-06 
903.76 2.98934e-06 
904.29 2.98216e-06 
904.82 2.97856e-06 
905.351 2.98e-06 
905.881 2.98883e-06 
906.411 3.00613e-06 
906.941 3.03061e-06 
907.472 3.06101e-06 
908.002 3.09826e-06 
908.532 3.14342e-06 
909.062 3.19384e-06 
