#energy geo_1 
400 3.15919e-06 
400.53 3.16505e-06 
401.061 3.17144e-06 
401.591 3.17847e-06 
402.121 3.18627e-06 
402.651 3.19499e-06 
403.182 3.20483e-06 
403.712 3.21604e-06 
404.242 3.22895e-06 
404.772 3.24397e-06 
405.303 3.26162e-06 
405.833 3.28246e-06 
406.363 3.30708e-06 
406.894 3.33581e-06 
407.424 3.36834e-06 
407.954 3.40296e-06 
408.484 3.43585e-06 
409.015 3.46115e-06 
409.545 3.4731e-06 
410.075 3.46949e-06 
410.605 3.45328e-06 
411.136 3.4304e-06 
411.666 3.40637e-06 
412.196 3.38456e-06 
412.727 3.36632e-06 
413.257 3.3518e-06 
413.787 3.34058e-06 
414.317 3.33211e-06 
414.848 3.32585e-06 
415.378 3.32133e-06 
415.908 3.3182e-06 
416.438 3.31616e-06 
416.969 3.31499e-06 
417.499 3.31452e-06 
418.029 3.31462e-06 
418.56 3.31521e-06 
419.09 3.31627e-06 
419.62 3.31779e-06 
420.15 3.3198e-06 
420.681 3.32238e-06 
421.211 3.32569e-06 
421.741 3.32993e-06 
422.271 3.33542e-06 
422.802 3.34251e-06 
423.332 3.35161e-06 
423.862 3.36322e-06 
424.393 3.37794e-06 
424.923 3.39655e-06 
425.453 3.42009e-06 
425.983 3.44996e-06 
426.514 3.48799e-06 
427.044 3.53661e-06 
427.574 3.59886e-06 
428.104 3.67837e-06 
428.635 3.77904e-06 
429.165 3.90411e-06 
429.695 4.05415e-06 
430.226 4.22354e-06 
430.756 4.39564e-06 
431.286 4.54035e-06 
431.816 4.62123e-06 
432.347 4.61445e-06 
432.877 4.52577e-06 
433.407 4.38677e-06 
433.938 4.23497e-06 
434.468 4.09825e-06 
434.998 3.9915e-06 
435.528 3.92039e-06 
436.059 3.88559e-06 
436.589 3.88495e-06 
437.119 3.91342e-06 
437.649 3.96124e-06 
438.18 4.01219e-06 
438.71 4.04566e-06 
439.24 4.04454e-06 
439.771 4.00401e-06 
440.301 3.93159e-06 
440.831 3.83904e-06 
441.361 3.73647e-06 
441.892 3.63231e-06 
442.422 3.53396e-06 
442.952 3.44692e-06 
443.482 3.37394e-06 
444.013 3.3154e-06 
444.543 3.27033e-06 
445.073 3.23723e-06 
445.604 3.2144e-06 
446.134 3.19986e-06 
446.664 3.19104e-06 
447.194 3.18442e-06 
447.725 3.17597e-06 
448.255 3.16258e-06 
448.785 3.14366e-06 
449.315 3.12117e-06 
449.846 3.09792e-06 
450.376 3.07613e-06 
450.906 3.05688e-06 
451.437 3.04042e-06 
451.967 3.02656e-06 
452.497 3.01493e-06 
453.027 3.00517e-06 
453.558 2.99694e-06 
454.088 2.98997e-06 
454.618 2.98405e-06 
455.148 2.97899e-06 
455.679 2.97467e-06 
456.209 2.971e-06 
456.739 2.96792e-06 
457.27 2.9654e-06 
457.8 2.96346e-06 
458.33 2.96213e-06 
458.86 2.96151e-06 
459.391 2.96174e-06 
459.921 2.96304e-06 
460.451 2.96566e-06 
460.981 2.96996e-06 
461.512 2.97633e-06 
462.042 2.98523e-06 
462.572 2.99728e-06 
463.103 3.01323e-06 
463.633 3.03414e-06 
464.163 3.06139e-06 
464.693 3.09678e-06 
465.224 3.14265e-06 
465.754 3.20186e-06 
466.284 3.27763e-06 
466.814 3.37306e-06 
467.345 3.48993e-06 
467.875 3.62649e-06 
468.405 3.77433e-06 
468.936 3.91594e-06 
469.466 4.02615e-06 
469.996 4.08001e-06 
470.526 4.06403e-06 
471.057 3.98389e-06 
471.587 3.86233e-06 
472.117 3.72808e-06 
472.647 3.6045e-06 
473.178 3.50522e-06 
473.708 3.43576e-06 
474.238 3.39648e-06 
474.769 3.38429e-06 
475.299 3.39269e-06 
475.829 3.41106e-06 
476.359 3.4251e-06 
476.89 3.4201e-06 
477.42 3.38635e-06 
477.95 3.32334e-06 
478.48 3.23967e-06 
479.011 3.14809e-06 
479.541 3.05962e-06 
480.071 2.98068e-06 
480.602 2.91351e-06 
481.132 2.85782e-06 
481.662 2.81221e-06 
482.192 2.77502e-06 
482.723 2.74468e-06 
483.253 2.71986e-06 
483.783 2.69947e-06 
484.313 2.68265e-06 
484.844 2.6687e-06 
485.374 2.65709e-06 
485.904 2.64737e-06 
486.435 2.6392e-06 
486.965 2.6323e-06 
487.495 2.62643e-06 
488.025 2.62141e-06 
488.556 2.6171e-06 
489.086 2.61338e-06 
489.616 2.61015e-06 
490.146 2.60733e-06 
490.677 2.60487e-06 
491.207 2.60271e-06 
491.737 2.60081e-06 
492.268 2.59915e-06 
492.798 2.59769e-06 
493.328 2.59643e-06 
493.858 2.59534e-06 
494.389 2.5944e-06 
494.919 2.59361e-06 
495.449 2.59298e-06 
495.979 2.59251e-06 
496.51 2.59224e-06 
497.04 2.5922e-06 
497.57 2.59247e-06 
498.101 2.59314e-06 
498.631 2.59435e-06 
499.161 2.59625e-06 
499.691 2.59904e-06 
500.222 2.60294e-06 
500.752 2.60824e-06 
501.282 2.61527e-06 
501.812 2.6245e-06 
502.343 2.63652e-06 
502.873 2.65214e-06 
503.403 2.67239e-06 
503.934 2.69858e-06 
504.464 2.73228e-06 
504.994 2.77516e-06 
505.524 2.82866e-06 
506.055 2.89316e-06 
506.585 2.96663e-06 
507.115 3.04306e-06 
507.646 3.11171e-06 
508.176 3.15919e-06 
508.706 3.17442e-06 
509.236 3.15411e-06 
509.767 3.10509e-06 
510.297 3.04107e-06 
510.827 2.97636e-06 
511.357 2.92124e-06 
511.888 2.88118e-06 
512.418 2.85816e-06 
512.948 2.852e-06 
513.479 2.86089e-06 
514.009 2.88112e-06 
514.539 2.90673e-06 
515.069 2.93001e-06 
515.6 2.94345e-06 
516.13 2.94185e-06 
516.66 2.92343e-06 
517.19 2.88923e-06 
517.721 2.84218e-06 
518.251 2.78689e-06 
518.781 2.7291e-06 
519.312 2.67403e-06 
519.842 2.62499e-06 
520.372 2.58322e-06 
520.902 2.54855e-06 
521.433 2.52014e-06 
521.963 2.49696e-06 
522.493 2.47802e-06 
523.023 2.4625e-06 
523.554 2.4497e-06 
524.084 2.43907e-06 
524.614 2.43017e-06 
525.145 2.42264e-06 
525.675 2.41623e-06 
526.205 2.41069e-06 
526.735 2.40588e-06 
527.266 2.40165e-06 
527.796 2.3979e-06 
528.326 2.39456e-06 
528.856 2.39157e-06 
529.387 2.38888e-06 
529.917 2.38646e-06 
530.447 2.38428e-06 
530.978 2.38235e-06 
531.508 2.38063e-06 
532.038 2.37914e-06 
532.568 2.37785e-06 
533.099 2.37678e-06 
533.629 2.37592e-06 
534.159 2.37528e-06 
534.689 2.37488e-06 
535.22 2.37475e-06 
535.75 2.37493e-06 
536.28 2.37547e-06 
536.811 2.37648e-06 
537.341 2.37806e-06 
537.871 2.38036e-06 
538.401 2.38354e-06 
538.932 2.3878e-06 
539.462 2.39339e-06 
539.992 2.40062e-06 
540.522 2.40993e-06 
541.053 2.42189e-06 
541.583 2.43728e-06 
542.113 2.45711e-06 
542.644 2.48262e-06 
543.174 2.51529e-06 
543.704 2.55665e-06 
544.234 2.60784e-06 
544.765 2.66871e-06 
545.295 2.73631e-06 
545.825 2.80291e-06 
546.355 2.85555e-06 
546.886 2.87963e-06 
547.416 2.86684e-06 
547.946 2.82087e-06 
548.477 2.75466e-06 
549.007 2.68245e-06 
549.537 2.61418e-06 
550.067 2.55458e-06 
550.598 2.50479e-06 
551.128 2.46414e-06 
551.658 2.43127e-06 
552.188 2.40479e-06 
552.719 2.38343e-06 
553.249 2.36614e-06 
553.779 2.35212e-06 
554.31 2.3407e-06 
554.84 2.33138e-06 
555.37 2.32377e-06 
555.9 2.31755e-06 
556.431 2.31249e-06 
556.961 2.30838e-06 
557.491 2.30507e-06 
558.021 2.30241e-06 
558.552 2.30031e-06 
559.082 2.29867e-06 
559.612 2.2974e-06 
560.143 2.29645e-06 
560.673 2.29576e-06 
561.203 2.29527e-06 
561.733 2.29494e-06 
562.264 2.29474e-06 
562.794 2.29462e-06 
563.324 2.29455e-06 
563.854 2.2945e-06 
564.385 2.29446e-06 
564.915 2.29441e-06 
565.445 2.29434e-06 
565.976 2.29425e-06 
566.506 2.29413e-06 
567.036 2.29401e-06 
567.566 2.29387e-06 
568.097 2.29374e-06 
568.627 2.29362e-06 
569.157 2.29353e-06 
569.688 2.29348e-06 
570.218 2.29349e-06 
570.748 2.29356e-06 
571.278 2.29371e-06 
571.809 2.29395e-06 
572.339 2.29431e-06 
572.869 2.2948e-06 
573.399 2.29548e-06 
573.93 2.29637e-06 
574.46 2.29754e-06 
574.99 2.29909e-06 
575.521 2.30112e-06 
576.051 2.30376e-06 
576.581 2.30716e-06 
577.111 2.31151e-06 
577.642 2.31704e-06 
578.172 2.32405e-06 
578.702 2.33296e-06 
579.232 2.3443e-06 
579.763 2.35878e-06 
580.293 2.3773e-06 
580.823 2.40094e-06 
581.354 2.43093e-06 
581.884 2.46833e-06 
582.414 2.51363e-06 
582.944 2.56578e-06 
583.475 2.62108e-06 
584.005 2.6723e-06 
584.535 2.70968e-06 
585.065 2.72408e-06 
585.596 2.71116e-06 
586.126 2.67376e-06 
586.656 2.62062e-06 
587.187 2.56197e-06 
587.717 2.50567e-06 
588.247 2.4559e-06 
588.777 2.41394e-06 
589.308 2.37944e-06 
589.838 2.3514e-06 
590.368 2.32868e-06 
590.898 2.31025e-06 
591.429 2.29524e-06 
591.959 2.28295e-06 
592.489 2.27283e-06 
593.02 2.26446e-06 
593.55 2.25751e-06 
594.08 2.25169e-06 
594.61 2.24682e-06 
595.141 2.24273e-06 
595.671 2.23929e-06 
596.201 2.23639e-06 
596.731 2.23394e-06 
597.262 2.23188e-06 
597.792 2.23016e-06 
598.322 2.22872e-06 
598.853 2.22753e-06 
599.383 2.22655e-06 
599.913 2.22576e-06 
600.443 2.22513e-06 
600.974 2.22465e-06 
601.504 2.2243e-06 
602.034 2.22406e-06 
602.564 2.22392e-06 
603.095 2.22387e-06 
603.625 2.2239e-06 
604.155 2.22401e-06 
604.686 2.22418e-06 
605.216 2.22441e-06 
605.746 2.2247e-06 
606.276 2.22504e-06 
606.807 2.22543e-06 
607.337 2.22586e-06 
607.867 2.22632e-06 
608.397 2.22682e-06 
608.928 2.22736e-06 
609.458 2.22793e-06 
609.988 2.22852e-06 
610.519 2.22914e-06 
611.049 2.22979e-06 
611.579 2.23046e-06 
612.109 2.23115e-06 
612.64 2.23186e-06 
613.17 2.23259e-06 
613.7 2.23334e-06 
614.23 2.2341e-06 
614.761 2.23488e-06 
615.291 2.23568e-06 
615.821 2.23649e-06 
616.352 2.23732e-06 
616.882 2.23815e-06 
617.412 2.239e-06 
617.942 2.23987e-06 
618.473 2.24074e-06 
619.003 2.24162e-06 
619.533 2.24252e-06 
620.063 2.24342e-06 
620.594 2.24434e-06 
621.124 2.24526e-06 
621.654 2.24619e-06 
622.185 2.24714e-06 
622.715 2.24809e-06 
623.245 2.24904e-06 
623.775 2.25001e-06 
624.306 2.25098e-06 
624.836 2.25197e-06 
625.366 2.25296e-06 
625.896 2.25395e-06 
626.427 2.25496e-06 
626.957 2.25597e-06 
627.487 2.25698e-06 
628.018 2.25801e-06 
628.548 2.25904e-06 
629.078 2.26008e-06 
629.608 2.26112e-06 
630.139 2.26217e-06 
630.669 2.26323e-06 
631.199 2.26429e-06 
631.729 2.26536e-06 
632.26 2.26643e-06 
632.79 2.26751e-06 
633.32 2.26859e-06 
633.851 2.26968e-06 
634.381 2.27077e-06 
634.911 2.27187e-06 
635.441 2.27297e-06 
635.972 2.27408e-06 
636.502 2.27519e-06 
637.032 2.27631e-06 
637.562 2.27743e-06 
638.093 2.27855e-06 
638.623 2.27968e-06 
639.153 2.28082e-06 
639.684 2.28195e-06 
640.214 2.28309e-06 
640.744 2.28424e-06 
641.274 2.28539e-06 
641.805 2.28654e-06 
642.335 2.28769e-06 
642.865 2.28885e-06 
643.396 2.29002e-06 
643.926 2.29119e-06 
644.456 2.29236e-06 
644.986 2.29354e-06 
645.517 2.29472e-06 
646.047 2.2959e-06 
646.577 2.29709e-06 
647.107 2.29829e-06 
647.638 2.29949e-06 
648.168 2.3007e-06 
648.698 2.30191e-06 
649.229 2.30312e-06 
649.759 2.30434e-06 
650.289 2.30556e-06 
650.819 2.30679e-06 
651.35 2.30803e-06 
651.88 2.30927e-06 
652.41 2.31051e-06 
652.94 2.31176e-06 
653.471 2.31301e-06 
654.001 2.31427e-06 
654.531 2.31553e-06 
655.062 2.3168e-06 
655.592 2.31807e-06 
656.122 2.31935e-06 
656.652 2.32063e-06 
657.183 2.32191e-06 
657.713 2.3232e-06 
658.243 2.32448e-06 
658.773 2.32578e-06 
659.304 2.32707e-06 
659.834 2.32837e-06 
660.364 2.32967e-06 
660.895 2.33098e-06 
661.425 2.33229e-06 
661.955 2.3336e-06 
662.485 2.33491e-06 
663.016 2.33623e-06 
663.546 2.33755e-06 
664.076 2.33888e-06 
664.606 2.34021e-06 
665.137 2.34154e-06 
665.667 2.34288e-06 
666.197 2.34422e-06 
666.728 2.34557e-06 
667.258 2.34692e-06 
667.788 2.34827e-06 
668.318 2.34963e-06 
668.849 2.35099e-06 
669.379 2.35236e-06 
669.909 2.35373e-06 
670.439 2.35511e-06 
670.97 2.3565e-06 
671.5 2.35789e-06 
672.03 2.35928e-06 
672.561 2.36068e-06 
673.091 2.36208e-06 
673.621 2.36349e-06 
674.151 2.3649e-06 
674.682 2.36632e-06 
675.212 2.36774e-06 
675.742 2.36917e-06 
676.272 2.3706e-06 
676.803 2.37203e-06 
677.333 2.37347e-06 
677.863 2.37492e-06 
678.394 2.37637e-06 
678.924 2.37782e-06 
679.454 2.37927e-06 
679.984 2.38073e-06 
680.515 2.38219e-06 
681.045 2.38366e-06 
681.575 2.38513e-06 
682.105 2.38661e-06 
682.636 2.38809e-06 
683.166 2.38957e-06 
683.696 2.39106e-06 
684.227 2.39255e-06 
684.757 2.39405e-06 
685.287 2.39556e-06 
685.817 2.39706e-06 
686.348 2.39858e-06 
686.878 2.4001e-06 
687.408 2.40162e-06 
687.938 2.40315e-06 
688.469 2.40468e-06 
688.999 2.40622e-06 
689.529 2.40776e-06 
690.06 2.40931e-06 
690.59 2.41087e-06 
691.12 2.41243e-06 
691.65 2.41399e-06 
692.181 2.41556e-06 
692.711 2.41713e-06 
693.241 2.4187e-06 
693.771 2.42029e-06 
694.302 2.42187e-06 
694.832 2.42347e-06 
695.362 2.42506e-06 
695.893 2.42666e-06 
696.423 2.42827e-06 
696.953 2.42988e-06 
697.483 2.43149e-06 
698.014 2.43311e-06 
698.544 2.43474e-06 
699.074 2.43637e-06 
699.604 2.43801e-06 
700.135 2.43965e-06 
700.665 2.4413e-06 
701.195 2.44295e-06 
701.726 2.44461e-06 
702.256 2.44628e-06 
702.786 2.44795e-06 
703.316 2.44963e-06 
703.847 2.45132e-06 
704.377 2.45301e-06 
704.907 2.4547e-06 
705.438 2.45641e-06 
705.968 2.45811e-06 
706.498 2.45983e-06 
707.028 2.46155e-06 
707.559 2.46327e-06 
708.089 2.465e-06 
708.619 2.46673e-06 
709.149 2.46847e-06 
709.68 2.47022e-06 
710.21 2.47197e-06 
710.74 2.47373e-06 
711.271 2.47549e-06 
711.801 2.47726e-06 
712.331 2.47903e-06 
712.861 2.48081e-06 
713.392 2.4826e-06 
713.922 2.48439e-06 
714.452 2.48619e-06 
714.982 2.488e-06 
715.513 2.48981e-06 
716.043 2.49163e-06 
716.573 2.49346e-06 
717.104 2.49529e-06 
717.634 2.49714e-06 
718.164 2.49899e-06 
718.694 2.50084e-06 
719.225 2.5027e-06 
719.755 2.50457e-06 
720.285 2.50645e-06 
720.815 2.50833e-06 
721.346 2.51022e-06 
721.876 2.51211e-06 
722.406 2.51401e-06 
722.937 2.51592e-06 
723.467 2.51783e-06 
723.997 2.51974e-06 
724.527 2.52167e-06 
725.058 2.5236e-06 
725.588 2.52554e-06 
726.118 2.52749e-06 
726.648 2.52944e-06 
727.179 2.53141e-06 
727.709 2.53338e-06 
728.239 2.53536e-06 
728.77 2.53736e-06 
729.3 2.53936e-06 
729.83 2.54137e-06 
730.36 2.54339e-06 
730.891 2.54542e-06 
731.421 2.54746e-06 
731.951 2.54951e-06 
732.481 2.55157e-06 
733.012 2.55363e-06 
733.542 2.5557e-06 
734.072 2.55778e-06 
734.603 2.55985e-06 
735.133 2.56194e-06 
735.663 2.56403e-06 
736.193 2.56612e-06 
736.724 2.56822e-06 
737.254 2.57032e-06 
737.784 2.57243e-06 
738.314 2.57454e-06 
738.845 2.57667e-06 
739.375 2.5788e-06 
739.905 2.58094e-06 
740.436 2.58309e-06 
740.966 2.58526e-06 
741.496 2.58744e-06 
742.026 2.58963e-06 
742.557 2.59183e-06 
743.087 2.59405e-06 
743.617 2.59628e-06 
744.147 2.59853e-06 
744.678 2.60079e-06 
745.208 2.60306e-06 
745.738 2.60534e-06 
746.269 2.60763e-06 
746.799 2.60992e-06 
747.329 2.61223e-06 
747.859 2.61454e-06 
748.39 2.61685e-06 
748.92 2.61917e-06 
749.45 2.62149e-06 
749.98 2.62383e-06 
750.511 2.62616e-06 
751.041 2.62851e-06 
751.571 2.63086e-06 
752.102 2.63323e-06 
752.632 2.63561e-06 
753.162 2.63801e-06 
753.692 2.64041e-06 
754.223 2.64284e-06 
754.753 2.64528e-06 
755.283 2.64774e-06 
755.813 2.65022e-06 
756.344 2.6527e-06 
756.874 2.6552e-06 
757.404 2.65771e-06 
757.935 2.66022e-06 
758.465 2.66274e-06 
758.995 2.66525e-06 
759.525 2.66777e-06 
760.056 2.67029e-06 
760.586 2.67281e-06 
761.116 2.67534e-06 
761.646 2.67788e-06 
762.177 2.68043e-06 
762.707 2.68299e-06 
763.237 2.68555e-06 
763.768 2.68813e-06 
764.298 2.69072e-06 
764.828 2.69333e-06 
765.358 2.69596e-06 
765.889 2.6986e-06 
766.419 2.70126e-06 
766.949 2.70395e-06 
767.479 2.70665e-06 
768.01 2.70937e-06 
768.54 2.71211e-06 
769.07 2.71486e-06 
769.601 2.71762e-06 
770.131 2.7204e-06 
770.661 2.72319e-06 
771.191 2.72598e-06 
771.722 2.72879e-06 
772.252 2.7316e-06 
772.782 2.73443e-06 
773.312 2.73727e-06 
773.843 2.74013e-06 
774.373 2.743e-06 
774.903 2.7459e-06 
775.434 2.74883e-06 
775.964 2.75178e-06 
776.494 2.75476e-06 
777.024 2.75778e-06 
777.555 2.76083e-06 
778.085 2.7639e-06 
778.615 2.767e-06 
779.146 2.77013e-06 
779.676 2.77329e-06 
780.206 2.77646e-06 
780.736 2.77964e-06 
781.267 2.78285e-06 
781.797 2.78607e-06 
782.327 2.78931e-06 
782.857 2.79257e-06 
783.388 2.79586e-06 
783.918 2.79918e-06 
784.448 2.80253e-06 
784.979 2.80591e-06 
785.509 2.80934e-06 
786.039 2.81279e-06 
786.569 2.81628e-06 
787.1 2.81981e-06 
787.63 2.82336e-06 
788.16 2.82692e-06 
788.69 2.8305e-06 
789.221 2.83408e-06 
789.751 2.83767e-06 
790.281 2.84125e-06 
790.812 2.84484e-06 
791.342 2.84843e-06 
791.872 2.85203e-06 
792.402 2.85566e-06 
792.933 2.85931e-06 
793.463 2.863e-06 
793.993 2.86671e-06 
794.523 2.87046e-06 
795.054 2.87424e-06 
795.584 2.87804e-06 
796.114 2.88186e-06 
796.645 2.88568e-06 
797.175 2.88949e-06 
797.705 2.89332e-06 
798.235 2.89715e-06 
798.766 2.90099e-06 
799.296 2.90487e-06 
799.826 2.90879e-06 
800.356 2.91278e-06 
800.887 2.91685e-06 
801.417 2.921e-06 
801.947 2.92523e-06 
802.478 2.92952e-06 
803.008 2.93388e-06 
803.538 2.93828e-06 
804.068 2.94272e-06 
804.599 2.94719e-06 
805.129 2.95169e-06 
805.659 2.95626e-06 
806.189 2.96089e-06 
806.72 2.96562e-06 
807.25 2.97045e-06 
807.78 2.97537e-06 
808.311 2.98037e-06 
808.841 2.98545e-06 
809.371 2.99057e-06 
809.901 2.99569e-06 
810.432 3.00081e-06 
810.962 3.00594e-06 
811.492 3.01108e-06 
812.022 3.01623e-06 
812.553 3.02141e-06 
813.083 3.0266e-06 
813.613 3.0318e-06 
814.144 3.03697e-06 
814.674 3.04206e-06 
815.204 3.04703e-06 
815.734 3.05186e-06 
816.265 3.05651e-06 
816.795 3.06092e-06 
817.325 3.065e-06 
817.855 3.0686e-06 
818.386 3.07154e-06 
818.916 3.07361e-06 
819.446 3.07475e-06 
819.977 3.07508e-06 
820.507 3.07489e-06 
821.037 3.07468e-06 
821.567 3.07497e-06 
822.098 3.07625e-06 
822.628 3.07884e-06 
823.158 3.08285e-06 
823.688 3.08805e-06 
824.219 3.0942e-06 
824.749 3.10105e-06 
825.279 3.10852e-06 
825.81 3.11663e-06 
826.34 3.12554e-06 
826.87 3.13536e-06 
827.4 3.14601e-06 
827.931 3.15719e-06 
828.461 3.16853e-06 
828.991 3.17982e-06 
829.521 3.19117e-06 
830.052 3.20303e-06 
830.582 3.21596e-06 
831.112 3.23027e-06 
831.643 3.24589e-06 
832.173 3.26252e-06 
832.703 3.27977e-06 
833.233 3.29727e-06 
833.764 3.31469e-06 
834.294 3.3317e-06 
834.824 3.34806e-06 
835.354 3.36388e-06 
835.885 3.37947e-06 
836.415 3.39509e-06 
836.945 3.41043e-06 
837.476 3.42464e-06 
838.006 3.43671e-06 
838.536 3.44586e-06 
839.066 3.45193e-06 
839.597 3.45529e-06 
840.127 3.4566e-06 
840.657 3.45645e-06 
841.188 3.45457e-06 
841.718 3.4502e-06 
842.248 3.44336e-06 
842.778 3.4352e-06 
843.309 3.42645e-06 
843.839 3.41726e-06 
844.369 3.40821e-06 
844.899 3.3997e-06 
845.43 3.39062e-06 
845.96 3.3797e-06 
846.49 3.36749e-06 
847.021 3.35531e-06 
847.551 3.34403e-06 
848.081 3.33257e-06 
848.611 3.3171e-06 
849.142 3.296e-06 
849.672 3.27185e-06 
850.202 3.24879e-06 
850.732 3.22973e-06 
851.263 3.21562e-06 
851.793 3.20558e-06 
852.323 3.19722e-06 
852.854 3.18931e-06 
853.384 3.18256e-06 
853.914 3.1782e-06 
854.444 3.1775e-06 
854.975 3.18498e-06 
855.505 3.21351e-06 
856.035 3.289e-06 
856.565 3.45301e-06 
857.096 3.76771e-06 
857.626 4.35305e-06 
858.156 5.50181e-06 
858.687 8.02245e-06 
859.217 1.38317e-05 
859.747 2.0567e-05 
860.277 1.81128e-05 
860.808 1.08096e-05 
861.338 6.62978e-06 
861.868 4.80544e-06 
862.398 3.91926e-06 
862.929 3.43366e-06 
863.459 3.14168e-06 
863.989 2.95354e-06 
864.52 2.82578e-06 
865.05 2.73543e-06 
865.58 2.66946e-06 
866.11 2.62006e-06 
866.641 2.58232e-06 
867.171 2.55299e-06 
867.701 2.52993e-06 
868.231 2.51162e-06 
868.762 2.49698e-06 
869.292 2.48521e-06 
869.822 2.47574e-06 
870.353 2.46812e-06 
870.883 2.46201e-06 
871.413 2.45715e-06 
871.943 2.45332e-06 
872.474 2.45036e-06 
873.004 2.44813e-06 
873.534 2.44652e-06 
874.064 2.44543e-06 
874.595 2.4448e-06 
875.125 2.44456e-06 
875.655 2.44468e-06 
876.186 2.44512e-06 
876.716 2.44583e-06 
877.246 2.44678e-06 
877.776 2.44794e-06 
878.307 2.4493e-06 
878.837 2.45085e-06 
879.367 2.45256e-06 
879.897 2.45443e-06 
880.428 2.45645e-06 
880.958 2.45861e-06 
881.488 2.46091e-06 
882.019 2.46334e-06 
882.549 2.46589e-06 
883.079 2.46857e-06 
883.609 2.47135e-06 
884.14 2.47423e-06 
884.67 2.4772e-06 
885.2 2.48026e-06 
885.73 2.48338e-06 
886.261 2.48658e-06 
886.791 2.48984e-06 
887.321 2.49317e-06 
887.852 2.49654e-06 
888.382 2.49998e-06 
888.912 2.5035e-06 
889.442 2.50708e-06 
889.973 2.51074e-06 
890.503 2.51448e-06 
891.033 2.51831e-06 
891.563 2.52225e-06 
892.094 2.52627e-06 
892.624 2.53038e-06 
893.154 2.53456e-06 
893.685 2.53884e-06 
894.215 2.54318e-06 
894.745 2.54757e-06 
895.275 2.55199e-06 
895.806 2.55645e-06 
896.336 2.56095e-06 
896.866 2.56548e-06 
897.396 2.57003e-06 
897.927 2.57461e-06 
898.457 2.57925e-06 
898.987 2.58396e-06 
899.518 2.58874e-06 
900.048 2.59361e-06 
900.578 2.59855e-06 
901.108 2.60358e-06 
901.639 2.60869e-06 
902.169 2.61387e-06 
902.699 2.61907e-06 
903.229 2.62428e-06 
903.76 2.6295e-06 
904.29 2.63472e-06 
904.82 2.63993e-06 
905.351 2.64512e-06 
905.881 2.65033e-06 
906.411 2.65558e-06 
906.941 2.66091e-06 
907.472 2.66635e-06 
908.002 2.6719e-06 
908.532 2.67756e-06 
909.062 2.68334e-06 
