#energy geo_1 
400 1.17104e-06 
400.53 1.17127e-06 
401.061 1.17151e-06 
401.591 1.17174e-06 
402.121 1.17198e-06 
402.651 1.17221e-06 
403.182 1.17245e-06 
403.712 1.17268e-06 
404.242 1.17292e-06 
404.772 1.17315e-06 
405.303 1.17339e-06 
405.833 1.17363e-06 
406.363 1.17386e-06 
406.894 1.1741e-06 
407.424 1.17433e-06 
407.954 1.17457e-06 
408.484 1.17481e-06 
409.015 1.17504e-06 
409.545 1.17528e-06 
410.075 1.17551e-06 
410.605 1.17575e-06 
411.136 1.17599e-06 
411.666 1.17622e-06 
412.196 1.17646e-06 
412.727 1.1767e-06 
413.257 1.17693e-06 
413.787 1.17717e-06 
414.317 1.17741e-06 
414.848 1.17764e-06 
415.378 1.17788e-06 
415.908 1.17812e-06 
416.438 1.17836e-06 
416.969 1.17859e-06 
417.499 1.17883e-06 
418.029 1.17907e-06 
418.56 1.17931e-06 
419.09 1.17955e-06 
419.62 1.17979e-06 
420.15 1.18003e-06 
420.681 1.18027e-06 
421.211 1.18051e-06 
421.741 1.18076e-06 
422.271 1.181e-06 
422.802 1.18124e-06 
423.332 1.18148e-06 
423.862 1.18173e-06 
424.393 1.18197e-06 
424.923 1.18221e-06 
425.453 1.18246e-06 
425.983 1.1827e-06 
426.514 1.18295e-06 
427.044 1.18319e-06 
427.574 1.18344e-06 
428.104 1.18368e-06 
428.635 1.18393e-06 
429.165 1.18417e-06 
429.695 1.18442e-06 
430.226 1.18466e-06 
430.756 1.18491e-06 
431.286 1.18516e-06 
431.816 1.1854e-06 
432.347 1.18565e-06 
432.877 1.18589e-06 
433.407 1.18614e-06 
433.938 1.18638e-06 
434.468 1.18663e-06 
434.998 1.18688e-06 
435.528 1.18712e-06 
436.059 1.18737e-06 
436.589 1.18761e-06 
437.119 1.18786e-06 
437.649 1.18811e-06 
438.18 1.18835e-06 
438.71 1.1886e-06 
439.24 1.18885e-06 
439.771 1.18909e-06 
440.301 1.18934e-06 
440.831 1.18959e-06 
441.361 1.18984e-06 
441.892 1.19008e-06 
442.422 1.19033e-06 
442.952 1.19058e-06 
443.482 1.19083e-06 
444.013 1.19109e-06 
444.543 1.19134e-06 
445.073 1.19159e-06 
445.604 1.19184e-06 
446.134 1.19209e-06 
446.664 1.19234e-06 
447.194 1.1926e-06 
447.725 1.19285e-06 
448.255 1.1931e-06 
448.785 1.19335e-06 
449.315 1.19361e-06 
449.846 1.19386e-06 
450.376 1.19411e-06 
450.906 1.19437e-06 
451.437 1.19462e-06 
451.967 1.19488e-06 
452.497 1.19513e-06 
453.027 1.19538e-06 
453.558 1.19564e-06 
454.088 1.19589e-06 
454.618 1.19615e-06 
455.148 1.19641e-06 
455.679 1.19666e-06 
456.209 1.19692e-06 
456.739 1.19717e-06 
457.27 1.19743e-06 
457.8 1.19769e-06 
458.33 1.19794e-06 
458.86 1.1982e-06 
459.391 1.19846e-06 
459.921 1.19872e-06 
460.451 1.19897e-06 
460.981 1.19923e-06 
461.512 1.19949e-06 
462.042 1.19975e-06 
462.572 1.20001e-06 
463.103 1.20027e-06 
463.633 1.20053e-06 
464.163 1.2008e-06 
464.693 1.20106e-06 
465.224 1.20132e-06 
465.754 1.20158e-06 
466.284 1.20184e-06 
466.814 1.2021e-06 
467.345 1.20236e-06 
467.875 1.20262e-06 
468.405 1.20288e-06 
468.936 1.20315e-06 
469.466 1.20341e-06 
469.996 1.20367e-06 
470.526 1.20393e-06 
471.057 1.20419e-06 
471.587 1.20445e-06 
472.117 1.20472e-06 
472.647 1.20498e-06 
473.178 1.20524e-06 
473.708 1.2055e-06 
474.238 1.20577e-06 
474.769 1.20603e-06 
475.299 1.2063e-06 
475.829 1.20656e-06 
476.359 1.20683e-06 
476.89 1.20709e-06 
477.42 1.20736e-06 
477.95 1.20763e-06 
478.48 1.20789e-06 
479.011 1.20816e-06 
479.541 1.20843e-06 
480.071 1.20869e-06 
480.602 1.20896e-06 
481.132 1.20923e-06 
481.662 1.20949e-06 
482.192 1.20976e-06 
482.723 1.21003e-06 
483.253 1.2103e-06 
483.783 1.21057e-06 
484.313 1.21084e-06 
484.844 1.21111e-06 
485.374 1.21138e-06 
485.904 1.21164e-06 
486.435 1.21191e-06 
486.965 1.21218e-06 
487.495 1.21246e-06 
488.025 1.21273e-06 
488.556 1.213e-06 
489.086 1.21327e-06 
489.616 1.21354e-06 
490.146 1.21381e-06 
490.677 1.21408e-06 
491.207 1.21435e-06 
491.737 1.21462e-06 
492.268 1.2149e-06 
492.798 1.21517e-06 
493.328 1.21544e-06 
493.858 1.21571e-06 
494.389 1.21599e-06 
494.919 1.21626e-06 
495.449 1.21653e-06 
495.979 1.21681e-06 
496.51 1.21708e-06 
497.04 1.21736e-06 
497.57 1.21763e-06 
498.101 1.21791e-06 
498.631 1.21819e-06 
499.161 1.21846e-06 
499.691 1.21874e-06 
500.222 1.21902e-06 
500.752 1.2193e-06 
501.282 1.21957e-06 
501.812 1.21985e-06 
502.343 1.22013e-06 
502.873 1.22041e-06 
503.403 1.22069e-06 
503.934 1.22097e-06 
504.464 1.22125e-06 
504.994 1.22153e-06 
505.524 1.22181e-06 
506.055 1.22209e-06 
506.585 1.22237e-06 
507.115 1.22265e-06 
507.646 1.22293e-06 
508.176 1.22322e-06 
508.706 1.2235e-06 
509.236 1.22378e-06 
509.767 1.22406e-06 
510.297 1.22435e-06 
510.827 1.22463e-06 
511.357 1.22491e-06 
511.888 1.2252e-06 
512.418 1.22548e-06 
512.948 1.22576e-06 
513.479 1.22605e-06 
514.009 1.22633e-06 
514.539 1.22662e-06 
515.069 1.2269e-06 
515.6 1.22719e-06 
516.13 1.22747e-06 
516.66 1.22776e-06 
517.19 1.22805e-06 
517.721 1.22833e-06 
518.251 1.22862e-06 
518.781 1.22891e-06 
519.312 1.22919e-06 
519.842 1.22948e-06 
520.372 1.22977e-06 
520.902 1.23006e-06 
521.433 1.23035e-06 
521.963 1.23064e-06 
522.493 1.23093e-06 
523.023 1.23121e-06 
523.554 1.2315e-06 
524.084 1.23179e-06 
524.614 1.23208e-06 
525.145 1.23238e-06 
525.675 1.23267e-06 
526.205 1.23296e-06 
526.735 1.23325e-06 
527.266 1.23354e-06 
527.796 1.23384e-06 
528.326 1.23413e-06 
528.856 1.23442e-06 
529.387 1.23472e-06 
529.917 1.23501e-06 
530.447 1.23531e-06 
530.978 1.2356e-06 
531.508 1.2359e-06 
532.038 1.2362e-06 
532.568 1.23649e-06 
533.099 1.23679e-06 
533.629 1.23709e-06 
534.159 1.23739e-06 
534.689 1.23769e-06 
535.22 1.23799e-06 
535.75 1.23829e-06 
536.28 1.23858e-06 
536.811 1.23888e-06 
537.341 1.23918e-06 
537.871 1.23949e-06 
538.401 1.23979e-06 
538.932 1.24009e-06 
539.462 1.24039e-06 
539.992 1.24069e-06 
540.522 1.24099e-06 
541.053 1.2413e-06 
541.583 1.2416e-06 
542.113 1.2419e-06 
542.644 1.2422e-06 
543.174 1.24251e-06 
543.704 1.24281e-06 
544.234 1.24311e-06 
544.765 1.24342e-06 
545.295 1.24372e-06 
545.825 1.24402e-06 
546.355 1.24433e-06 
546.886 1.24463e-06 
547.416 1.24494e-06 
547.946 1.24524e-06 
548.477 1.24555e-06 
549.007 1.24586e-06 
549.537 1.24616e-06 
550.067 1.24647e-06 
550.598 1.24678e-06 
551.128 1.24708e-06 
551.658 1.24739e-06 
552.188 1.2477e-06 
552.719 1.24801e-06 
553.249 1.24832e-06 
553.779 1.24863e-06 
554.31 1.24894e-06 
554.84 1.24925e-06 
555.37 1.24956e-06 
555.9 1.24987e-06 
556.431 1.25018e-06 
556.961 1.25049e-06 
557.491 1.25081e-06 
558.021 1.25112e-06 
558.552 1.25143e-06 
559.082 1.25175e-06 
559.612 1.25206e-06 
560.143 1.25238e-06 
560.673 1.2527e-06 
561.203 1.25301e-06 
561.733 1.25333e-06 
562.264 1.25365e-06 
562.794 1.25396e-06 
563.324 1.25428e-06 
563.854 1.2546e-06 
564.385 1.25492e-06 
564.915 1.25524e-06 
565.445 1.25556e-06 
565.976 1.25588e-06 
566.506 1.2562e-06 
567.036 1.25652e-06 
567.566 1.25685e-06 
568.097 1.25717e-06 
568.627 1.25749e-06 
569.157 1.25781e-06 
569.688 1.25814e-06 
570.218 1.25846e-06 
570.748 1.25878e-06 
571.278 1.25911e-06 
571.809 1.25943e-06 
572.339 1.25975e-06 
572.869 1.26008e-06 
573.399 1.2604e-06 
573.93 1.26073e-06 
574.46 1.26106e-06 
574.99 1.26138e-06 
575.521 1.26171e-06 
576.051 1.26203e-06 
576.581 1.26236e-06 
577.111 1.26269e-06 
577.642 1.26302e-06 
578.172 1.26334e-06 
578.702 1.26367e-06 
579.232 1.264e-06 
579.763 1.26433e-06 
580.293 1.26466e-06 
580.823 1.26499e-06 
581.354 1.26532e-06 
581.884 1.26565e-06 
582.414 1.26598e-06 
582.944 1.26631e-06 
583.475 1.26664e-06 
584.005 1.26697e-06 
584.535 1.26731e-06 
585.065 1.26764e-06 
585.596 1.26797e-06 
586.126 1.26831e-06 
586.656 1.26864e-06 
587.187 1.26898e-06 
587.717 1.26931e-06 
588.247 1.26965e-06 
588.777 1.26999e-06 
589.308 1.27033e-06 
589.838 1.27066e-06 
590.368 1.271e-06 
590.898 1.27134e-06 
591.429 1.27168e-06 
591.959 1.27202e-06 
592.489 1.27236e-06 
593.02 1.2727e-06 
593.55 1.27304e-06 
594.08 1.27339e-06 
594.61 1.27373e-06 
595.141 1.27407e-06 
595.671 1.27442e-06 
596.201 1.27476e-06 
596.731 1.27511e-06 
597.262 1.27545e-06 
597.792 1.2758e-06 
598.322 1.27614e-06 
598.853 1.27649e-06 
599.383 1.27684e-06 
599.913 1.27719e-06 
600.443 1.27754e-06 
600.974 1.27788e-06 
601.504 1.27823e-06 
602.034 1.27858e-06 
602.564 1.27893e-06 
603.095 1.27928e-06 
603.625 1.27963e-06 
604.155 1.27999e-06 
604.686 1.28034e-06 
605.216 1.28069e-06 
605.746 1.28104e-06 
606.276 1.28139e-06 
606.807 1.28175e-06 
607.337 1.2821e-06 
607.867 1.28246e-06 
608.397 1.28281e-06 
608.928 1.28316e-06 
609.458 1.28352e-06 
609.988 1.28387e-06 
610.519 1.28423e-06 
611.049 1.28458e-06 
611.579 1.28494e-06 
612.109 1.2853e-06 
612.64 1.28566e-06 
613.17 1.28601e-06 
613.7 1.28637e-06 
614.23 1.28673e-06 
614.761 1.28709e-06 
615.291 1.28745e-06 
615.821 1.28781e-06 
616.352 1.28817e-06 
616.882 1.28853e-06 
617.412 1.28889e-06 
617.942 1.28925e-06 
618.473 1.28962e-06 
619.003 1.28998e-06 
619.533 1.29034e-06 
620.063 1.29071e-06 
620.594 1.29107e-06 
621.124 1.29144e-06 
621.654 1.2918e-06 
622.185 1.29217e-06 
622.715 1.29254e-06 
623.245 1.2929e-06 
623.775 1.29327e-06 
624.306 1.29364e-06 
624.836 1.29401e-06 
625.366 1.29438e-06 
625.896 1.29475e-06 
626.427 1.29513e-06 
626.957 1.2955e-06 
627.487 1.29587e-06 
628.018 1.29625e-06 
628.548 1.29662e-06 
629.078 1.297e-06 
629.608 1.29737e-06 
630.139 1.29775e-06 
630.669 1.29813e-06 
631.199 1.2985e-06 
631.729 1.29888e-06 
632.26 1.29926e-06 
632.79 1.29964e-06 
633.32 1.30002e-06 
633.851 1.3004e-06 
634.381 1.30078e-06 
634.911 1.30116e-06 
635.441 1.30155e-06 
635.972 1.30193e-06 
636.502 1.30231e-06 
637.032 1.30269e-06 
637.562 1.30308e-06 
638.093 1.30346e-06 
638.623 1.30385e-06 
639.153 1.30423e-06 
639.684 1.30462e-06 
640.214 1.30501e-06 
640.744 1.30539e-06 
641.274 1.30578e-06 
641.805 1.30617e-06 
642.335 1.30655e-06 
642.865 1.30694e-06 
643.396 1.30733e-06 
643.926 1.30772e-06 
644.456 1.30811e-06 
644.986 1.3085e-06 
645.517 1.30889e-06 
646.047 1.30928e-06 
646.577 1.30967e-06 
647.107 1.31006e-06 
647.638 1.31046e-06 
648.168 1.31085e-06 
648.698 1.31124e-06 
649.229 1.31164e-06 
649.759 1.31203e-06 
650.289 1.31243e-06 
650.819 1.31282e-06 
651.35 1.31322e-06 
651.88 1.31362e-06 
652.41 1.31402e-06 
652.94 1.31441e-06 
653.471 1.31481e-06 
654.001 1.31521e-06 
654.531 1.31561e-06 
655.062 1.31602e-06 
655.592 1.31642e-06 
656.122 1.31682e-06 
656.652 1.31723e-06 
657.183 1.31763e-06 
657.713 1.31804e-06 
658.243 1.31844e-06 
658.773 1.31885e-06 
659.304 1.31926e-06 
659.834 1.31966e-06 
660.364 1.32007e-06 
660.895 1.32048e-06 
661.425 1.3209e-06 
661.955 1.32131e-06 
662.485 1.32172e-06 
663.016 1.32213e-06 
663.546 1.32255e-06 
664.076 1.32296e-06 
664.606 1.32338e-06 
665.137 1.32379e-06 
665.667 1.32421e-06 
666.197 1.32463e-06 
666.728 1.32504e-06 
667.258 1.32546e-06 
667.788 1.32588e-06 
668.318 1.3263e-06 
668.849 1.32672e-06 
669.379 1.32714e-06 
669.909 1.32756e-06 
670.439 1.32798e-06 
670.97 1.32841e-06 
671.5 1.32883e-06 
672.03 1.32925e-06 
672.561 1.32968e-06 
673.091 1.3301e-06 
673.621 1.33053e-06 
674.151 1.33095e-06 
674.682 1.33138e-06 
675.212 1.33181e-06 
675.742 1.33223e-06 
676.272 1.33266e-06 
676.803 1.33309e-06 
677.333 1.33352e-06 
677.863 1.33395e-06 
678.394 1.33438e-06 
678.924 1.33481e-06 
679.454 1.33524e-06 
679.984 1.33567e-06 
680.515 1.3361e-06 
681.045 1.33653e-06 
681.575 1.33697e-06 
682.105 1.3374e-06 
682.636 1.33784e-06 
683.166 1.33827e-06 
683.696 1.33871e-06 
684.227 1.33915e-06 
684.757 1.33959e-06 
685.287 1.34003e-06 
685.817 1.34047e-06 
686.348 1.34091e-06 
686.878 1.34135e-06 
687.408 1.34179e-06 
687.938 1.34224e-06 
688.469 1.34268e-06 
688.999 1.34312e-06 
689.529 1.34357e-06 
690.06 1.34402e-06 
690.59 1.34447e-06 
691.12 1.34491e-06 
691.65 1.34536e-06 
692.181 1.34581e-06 
692.711 1.34627e-06 
693.241 1.34672e-06 
693.771 1.34717e-06 
694.302 1.34763e-06 
694.832 1.34808e-06 
695.362 1.34854e-06 
695.893 1.34899e-06 
696.423 1.34945e-06 
696.953 1.34991e-06 
697.483 1.35037e-06 
698.014 1.35083e-06 
698.544 1.35129e-06 
699.074 1.35175e-06 
699.604 1.35221e-06 
700.135 1.35267e-06 
700.665 1.35314e-06 
701.195 1.3536e-06 
701.726 1.35407e-06 
702.256 1.35453e-06 
702.786 1.355e-06 
703.316 1.35547e-06 
703.847 1.35593e-06 
704.377 1.3564e-06 
704.907 1.35687e-06 
705.438 1.35734e-06 
705.968 1.35781e-06 
706.498 1.35828e-06 
707.028 1.35876e-06 
707.559 1.35923e-06 
708.089 1.3597e-06 
708.619 1.36018e-06 
709.149 1.36065e-06 
709.68 1.36113e-06 
710.21 1.3616e-06 
710.74 1.36208e-06 
711.271 1.36256e-06 
711.801 1.36304e-06 
712.331 1.36352e-06 
712.861 1.364e-06 
713.392 1.36448e-06 
713.922 1.36496e-06 
714.452 1.36544e-06 
714.982 1.36593e-06 
715.513 1.36641e-06 
716.043 1.3669e-06 
716.573 1.36738e-06 
717.104 1.36787e-06 
717.634 1.36836e-06 
718.164 1.36885e-06 
718.694 1.36934e-06 
719.225 1.36983e-06 
719.755 1.37032e-06 
720.285 1.37081e-06 
720.815 1.37131e-06 
721.346 1.3718e-06 
721.876 1.3723e-06 
722.406 1.3728e-06 
722.937 1.3733e-06 
723.467 1.3738e-06 
723.997 1.3743e-06 
724.527 1.3748e-06 
725.058 1.3753e-06 
725.588 1.3758e-06 
726.118 1.37631e-06 
726.648 1.37681e-06 
727.179 1.37732e-06 
727.709 1.37783e-06 
728.239 1.37833e-06 
728.77 1.37884e-06 
729.3 1.37935e-06 
729.83 1.37986e-06 
730.36 1.38038e-06 
730.891 1.38089e-06 
731.421 1.3814e-06 
731.951 1.38192e-06 
732.481 1.38243e-06 
733.012 1.38295e-06 
733.542 1.38347e-06 
734.072 1.38398e-06 
734.603 1.3845e-06 
735.133 1.38502e-06 
735.663 1.38555e-06 
736.193 1.38607e-06 
736.724 1.38659e-06 
737.254 1.38711e-06 
737.784 1.38764e-06 
738.314 1.38817e-06 
738.845 1.38869e-06 
739.375 1.38922e-06 
739.905 1.38975e-06 
740.436 1.39028e-06 
740.966 1.39081e-06 
741.496 1.39134e-06 
742.026 1.39187e-06 
742.557 1.39241e-06 
743.087 1.39294e-06 
743.617 1.39348e-06 
744.147 1.39402e-06 
744.678 1.39455e-06 
745.208 1.39509e-06 
745.738 1.39563e-06 
746.269 1.39617e-06 
746.799 1.39672e-06 
747.329 1.39726e-06 
747.859 1.3978e-06 
748.39 1.39835e-06 
748.92 1.3989e-06 
749.45 1.39944e-06 
749.98 1.39999e-06 
750.511 1.40054e-06 
751.041 1.40109e-06 
751.571 1.40164e-06 
752.102 1.4022e-06 
752.632 1.40275e-06 
753.162 1.40331e-06 
753.692 1.40386e-06 
754.223 1.40442e-06 
754.753 1.40498e-06 
755.283 1.40554e-06 
755.813 1.4061e-06 
756.344 1.40666e-06 
756.874 1.40722e-06 
757.404 1.40779e-06 
757.935 1.40835e-06 
758.465 1.40892e-06 
758.995 1.40949e-06 
759.525 1.41006e-06 
760.056 1.41063e-06 
760.586 1.4112e-06 
761.116 1.41177e-06 
761.646 1.41234e-06 
762.177 1.41292e-06 
762.707 1.41349e-06 
763.237 1.41407e-06 
763.768 1.41465e-06 
764.298 1.41522e-06 
764.828 1.4158e-06 
765.358 1.41639e-06 
765.889 1.41697e-06 
766.419 1.41755e-06 
766.949 1.41814e-06 
767.479 1.41872e-06 
768.01 1.41931e-06 
768.54 1.4199e-06 
769.07 1.42049e-06 
769.601 1.42109e-06 
770.131 1.42168e-06 
770.661 1.42227e-06 
771.191 1.42287e-06 
771.722 1.42347e-06 
772.252 1.42406e-06 
772.782 1.42466e-06 
773.312 1.42527e-06 
773.843 1.42587e-06 
774.373 1.42647e-06 
774.903 1.42708e-06 
775.434 1.42768e-06 
775.964 1.42829e-06 
776.494 1.4289e-06 
777.024 1.42951e-06 
777.555 1.43012e-06 
778.085 1.43073e-06 
778.615 1.43135e-06 
779.146 1.43196e-06 
779.676 1.43258e-06 
780.206 1.4332e-06 
780.736 1.43382e-06 
781.267 1.43444e-06 
781.797 1.43506e-06 
782.327 1.43568e-06 
782.857 1.43631e-06 
783.388 1.43693e-06 
783.918 1.43756e-06 
784.448 1.43819e-06 
784.979 1.43882e-06 
785.509 1.43945e-06 
786.039 1.44008e-06 
786.569 1.44071e-06 
787.1 1.44135e-06 
787.63 1.44198e-06 
788.16 1.44262e-06 
788.69 1.44326e-06 
789.221 1.4439e-06 
789.751 1.44454e-06 
790.281 1.44518e-06 
790.812 1.44583e-06 
791.342 1.44647e-06 
791.872 1.44712e-06 
792.402 1.44777e-06 
792.933 1.44842e-06 
793.463 1.44907e-06 
793.993 1.44972e-06 
794.523 1.45038e-06 
795.054 1.45103e-06 
795.584 1.45169e-06 
796.114 1.45235e-06 
796.645 1.45301e-06 
797.175 1.45367e-06 
797.705 1.45434e-06 
798.235 1.455e-06 
798.766 1.45567e-06 
799.296 1.45634e-06 
799.826 1.45701e-06 
800.356 1.45768e-06 
800.887 1.45836e-06 
801.417 1.45903e-06 
801.947 1.45971e-06 
802.478 1.46039e-06 
803.008 1.46107e-06 
803.538 1.46176e-06 
804.068 1.46244e-06 
804.599 1.46313e-06 
805.129 1.46381e-06 
805.659 1.4645e-06 
806.189 1.4652e-06 
806.72 1.46589e-06 
807.25 1.46658e-06 
807.78 1.46728e-06 
808.311 1.46798e-06 
808.841 1.46868e-06 
809.371 1.46938e-06 
809.901 1.47008e-06 
810.432 1.47078e-06 
810.962 1.47149e-06 
811.492 1.47219e-06 
812.022 1.4729e-06 
812.553 1.47361e-06 
813.083 1.47432e-06 
813.613 1.47504e-06 
814.144 1.47575e-06 
814.674 1.47647e-06 
815.204 1.47718e-06 
815.734 1.4779e-06 
816.265 1.47862e-06 
816.795 1.47935e-06 
817.325 1.48007e-06 
817.855 1.4808e-06 
818.386 1.48153e-06 
818.916 1.48226e-06 
819.446 1.48299e-06 
819.977 1.48372e-06 
820.507 1.48445e-06 
821.037 1.48519e-06 
821.567 1.48593e-06 
822.098 1.48667e-06 
822.628 1.48741e-06 
823.158 1.48816e-06 
823.688 1.4889e-06 
824.219 1.48965e-06 
824.749 1.4904e-06 
825.279 1.49116e-06 
825.81 1.49191e-06 
826.34 1.49266e-06 
826.87 1.49342e-06 
827.4 1.49418e-06 
827.931 1.49495e-06 
828.461 1.49571e-06 
828.991 1.49648e-06 
829.521 1.49724e-06 
830.052 1.49801e-06 
830.582 1.49879e-06 
831.112 1.49956e-06 
831.643 1.50034e-06 
832.173 1.50111e-06 
832.703 1.50189e-06 
833.233 1.50268e-06 
833.764 1.50346e-06 
834.294 1.50425e-06 
834.824 1.50504e-06 
835.354 1.50583e-06 
835.885 1.50662e-06 
836.415 1.50741e-06 
836.945 1.50821e-06 
837.476 1.50901e-06 
838.006 1.50981e-06 
838.536 1.51061e-06 
839.066 1.51142e-06 
839.597 1.51223e-06 
840.127 1.51304e-06 
840.657 1.51385e-06 
841.188 1.51466e-06 
841.718 1.51548e-06 
842.248 1.5163e-06 
842.778 1.51712e-06 
843.309 1.51794e-06 
843.839 1.51877e-06 
844.369 1.51959e-06 
844.899 1.52042e-06 
845.43 1.52125e-06 
845.96 1.52209e-06 
846.49 1.52292e-06 
847.021 1.52376e-06 
847.551 1.5246e-06 
848.081 1.52544e-06 
848.611 1.52629e-06 
849.142 1.52713e-06 
849.672 1.52798e-06 
850.202 1.52883e-06 
850.732 1.52968e-06 
851.263 1.53054e-06 
851.793 1.5314e-06 
852.323 1.53225e-06 
852.854 1.53311e-06 
853.384 1.53398e-06 
853.914 1.53484e-06 
854.444 1.53571e-06 
854.975 1.53658e-06 
855.505 1.53745e-06 
856.035 1.53833e-06 
856.565 1.5392e-06 
857.096 1.54008e-06 
857.626 1.54096e-06 
858.156 1.54185e-06 
858.687 1.54273e-06 
859.217 1.54362e-06 
859.747 1.54451e-06 
860.277 1.54541e-06 
860.808 1.54631e-06 
861.338 1.54721e-06 
861.868 1.54811e-06 
862.398 1.54901e-06 
862.929 1.54992e-06 
863.459 1.55083e-06 
863.989 1.55175e-06 
864.52 1.55266e-06 
865.05 1.55358e-06 
865.58 1.55451e-06 
866.11 1.55543e-06 
866.641 1.55636e-06 
867.171 1.55729e-06 
867.701 1.55823e-06 
868.231 1.55916e-06 
868.762 1.5601e-06 
869.292 1.56105e-06 
869.822 1.56199e-06 
870.353 1.56294e-06 
870.883 1.56389e-06 
871.413 1.56484e-06 
871.943 1.5658e-06 
872.474 1.56676e-06 
873.004 1.56772e-06 
873.534 1.56868e-06 
874.064 1.56965e-06 
874.595 1.57062e-06 
875.125 1.57159e-06 
875.655 1.57256e-06 
876.186 1.57354e-06 
876.716 1.57451e-06 
877.246 1.5755e-06 
877.776 1.57648e-06 
878.307 1.57746e-06 
878.837 1.57845e-06 
879.367 1.57944e-06 
879.897 1.58044e-06 
880.428 1.58143e-06 
880.958 1.58243e-06 
881.488 1.58344e-06 
882.019 1.58444e-06 
882.549 1.58545e-06 
883.079 1.58646e-06 
883.609 1.58747e-06 
884.14 1.58849e-06 
884.67 1.58951e-06 
885.2 1.59054e-06 
885.73 1.59157e-06 
886.261 1.5926e-06 
886.791 1.59363e-06 
887.321 1.59467e-06 
887.852 1.59571e-06 
888.382 1.59675e-06 
888.912 1.5978e-06 
889.442 1.59885e-06 
889.973 1.59991e-06 
890.503 1.60097e-06 
891.033 1.60203e-06 
891.563 1.60309e-06 
892.094 1.60416e-06 
892.624 1.60523e-06 
893.154 1.60631e-06 
893.685 1.60739e-06 
894.215 1.60847e-06 
894.745 1.60955e-06 
895.275 1.61064e-06 
895.806 1.61173e-06 
896.336 1.61283e-06 
896.866 1.61393e-06 
897.396 1.61503e-06 
897.927 1.61614e-06 
898.457 1.61725e-06 
898.987 1.61836e-06 
899.518 1.61948e-06 
900.048 1.6206e-06 
900.578 1.62172e-06 
901.108 1.62285e-06 
901.639 1.62398e-06 
902.169 1.62512e-06 
902.699 1.62626e-06 
903.229 1.6274e-06 
903.76 1.62855e-06 
904.29 1.6297e-06 
904.82 1.63085e-06 
905.351 1.63201e-06 
905.881 1.63317e-06 
906.411 1.63434e-06 
906.941 1.63551e-06 
907.472 1.63668e-06 
908.002 1.63786e-06 
908.532 1.63904e-06 
909.062 1.64022e-06 
