#energy geo_1 
400 1.48741e-06 
400.53 1.48794e-06 
401.061 1.48847e-06 
401.591 1.489e-06 
402.121 1.48953e-06 
402.651 1.49006e-06 
403.182 1.49059e-06 
403.712 1.49112e-06 
404.242 1.49166e-06 
404.772 1.49219e-06 
405.303 1.49273e-06 
405.833 1.49326e-06 
406.363 1.4938e-06 
406.894 1.49434e-06 
407.424 1.49488e-06 
407.954 1.49542e-06 
408.484 1.49596e-06 
409.015 1.4965e-06 
409.545 1.49704e-06 
410.075 1.49759e-06 
410.605 1.49813e-06 
411.136 1.49868e-06 
411.666 1.49922e-06 
412.196 1.49977e-06 
412.727 1.50032e-06 
413.257 1.50086e-06 
413.787 1.50141e-06 
414.317 1.50196e-06 
414.848 1.50251e-06 
415.378 1.50306e-06 
415.908 1.50361e-06 
416.438 1.50416e-06 
416.969 1.50471e-06 
417.499 1.50526e-06 
418.029 1.50581e-06 
418.56 1.50636e-06 
419.09 1.5069e-06 
419.62 1.50745e-06 
420.15 1.508e-06 
420.681 1.50855e-06 
421.211 1.5091e-06 
421.741 1.50964e-06 
422.271 1.51019e-06 
422.802 1.51073e-06 
423.332 1.51127e-06 
423.862 1.51181e-06 
424.393 1.51235e-06 
424.923 1.51289e-06 
425.453 1.51343e-06 
425.983 1.51396e-06 
426.514 1.51449e-06 
427.044 1.51502e-06 
427.574 1.51555e-06 
428.104 1.51607e-06 
428.635 1.51659e-06 
429.165 1.51711e-06 
429.695 1.51763e-06 
430.226 1.51814e-06 
430.756 1.51865e-06 
431.286 1.51916e-06 
431.816 1.51966e-06 
432.347 1.52016e-06 
432.877 1.52066e-06 
433.407 1.52116e-06 
433.938 1.52165e-06 
434.468 1.52214e-06 
434.998 1.52263e-06 
435.528 1.52312e-06 
436.059 1.5236e-06 
436.589 1.52409e-06 
437.119 1.52458e-06 
437.649 1.52507e-06 
438.18 1.52556e-06 
438.71 1.52606e-06 
439.24 1.52657e-06 
439.771 1.52708e-06 
440.301 1.52761e-06 
440.831 1.52816e-06 
441.361 1.52872e-06 
441.892 1.52931e-06 
442.422 1.52994e-06 
442.952 1.5306e-06 
443.482 1.53131e-06 
444.013 1.53208e-06 
444.543 1.53292e-06 
445.073 1.53386e-06 
445.604 1.5349e-06 
446.134 1.53608e-06 
446.664 1.53744e-06 
447.194 1.539e-06 
447.725 1.54083e-06 
448.255 1.543e-06 
448.785 1.54558e-06 
449.315 1.5487e-06 
449.846 1.55249e-06 
450.376 1.55714e-06 
450.906 1.56285e-06 
451.437 1.56988e-06 
451.967 1.57845e-06 
452.497 1.58868e-06 
453.027 1.60036e-06 
453.558 1.61262e-06 
454.088 1.62371e-06 
454.618 1.63111e-06 
455.148 1.63265e-06 
455.679 1.62785e-06 
456.209 1.61831e-06 
456.739 1.60657e-06 
457.27 1.59478e-06 
457.8 1.58419e-06 
458.33 1.57525e-06 
458.86 1.56797e-06 
459.391 1.56217e-06 
459.921 1.55761e-06 
460.451 1.55407e-06 
460.981 1.55139e-06 
461.512 1.54941e-06 
462.042 1.54805e-06 
462.572 1.54722e-06 
463.103 1.54688e-06 
463.633 1.54702e-06 
464.163 1.54763e-06 
464.693 1.54874e-06 
465.224 1.5504e-06 
465.754 1.55268e-06 
466.284 1.55567e-06 
466.814 1.55951e-06 
467.345 1.56439e-06 
467.875 1.57054e-06 
468.405 1.57826e-06 
468.936 1.58796e-06 
469.466 1.60012e-06 
469.996 1.61536e-06 
470.526 1.63432e-06 
471.057 1.6576e-06 
471.587 1.68539e-06 
472.117 1.71688e-06 
472.647 1.74936e-06 
473.178 1.77756e-06 
473.708 1.7946e-06 
474.238 1.79511e-06 
474.769 1.77883e-06 
475.299 1.75078e-06 
475.829 1.71785e-06 
476.359 1.68548e-06 
476.89 1.65662e-06 
477.42 1.63223e-06 
477.95 1.61217e-06 
478.48 1.59591e-06 
479.011 1.58275e-06 
479.541 1.57211e-06 
480.071 1.56347e-06 
480.602 1.55642e-06 
481.132 1.55063e-06 
481.662 1.54585e-06 
482.192 1.54189e-06 
482.723 1.53859e-06 
483.253 1.53583e-06 
483.783 1.53352e-06 
484.313 1.53157e-06 
484.844 1.52993e-06 
485.374 1.52855e-06 
485.904 1.52739e-06 
486.435 1.52642e-06 
486.965 1.52561e-06 
487.495 1.52494e-06 
488.025 1.52438e-06 
488.556 1.52393e-06 
489.086 1.52357e-06 
489.616 1.52329e-06 
490.146 1.52308e-06 
490.677 1.52294e-06 
491.207 1.52284e-06 
491.737 1.5228e-06 
492.268 1.5228e-06 
492.798 1.52284e-06 
493.328 1.52292e-06 
493.858 1.52302e-06 
494.389 1.52316e-06 
494.919 1.52332e-06 
495.449 1.52351e-06 
495.979 1.52372e-06 
496.51 1.52395e-06 
497.04 1.5242e-06 
497.57 1.52446e-06 
498.101 1.52475e-06 
498.631 1.52504e-06 
499.161 1.52535e-06 
499.691 1.52567e-06 
500.222 1.526e-06 
500.752 1.52634e-06 
501.282 1.5267e-06 
501.812 1.52706e-06 
502.343 1.52743e-06 
502.873 1.52781e-06 
503.403 1.52819e-06 
503.934 1.52858e-06 
504.464 1.52898e-06 
504.994 1.52939e-06 
505.524 1.5298e-06 
506.055 1.53022e-06 
506.585 1.53064e-06 
507.115 1.53107e-06 
507.646 1.5315e-06 
508.176 1.53194e-06 
508.706 1.53238e-06 
509.236 1.53283e-06 
509.767 1.53328e-06 
510.297 1.53373e-06 
510.827 1.53419e-06 
511.357 1.53465e-06 
511.888 1.53511e-06 
512.418 1.53558e-06 
512.948 1.53605e-06 
513.479 1.53652e-06 
514.009 1.53699e-06 
514.539 1.53747e-06 
515.069 1.53795e-06 
515.6 1.53844e-06 
516.13 1.53892e-06 
516.66 1.53941e-06 
517.19 1.5399e-06 
517.721 1.54039e-06 
518.251 1.54088e-06 
518.781 1.54138e-06 
519.312 1.54188e-06 
519.842 1.54238e-06 
520.372 1.54288e-06 
520.902 1.54338e-06 
521.433 1.54389e-06 
521.963 1.54439e-06 
522.493 1.5449e-06 
523.023 1.54541e-06 
523.554 1.54592e-06 
524.084 1.54644e-06 
524.614 1.54695e-06 
525.145 1.54747e-06 
525.675 1.54798e-06 
526.205 1.5485e-06 
526.735 1.54902e-06 
527.266 1.54954e-06 
527.796 1.55007e-06 
528.326 1.55059e-06 
528.856 1.55111e-06 
529.387 1.55164e-06 
529.917 1.55217e-06 
530.447 1.5527e-06 
530.978 1.55323e-06 
531.508 1.55376e-06 
532.038 1.55429e-06 
532.568 1.55482e-06 
533.099 1.55536e-06 
533.629 1.55589e-06 
534.159 1.55643e-06 
534.689 1.55697e-06 
535.22 1.55751e-06 
535.75 1.55805e-06 
536.28 1.55859e-06 
536.811 1.55913e-06 
537.341 1.55967e-06 
537.871 1.56022e-06 
538.401 1.56076e-06 
538.932 1.56131e-06 
539.462 1.56185e-06 
539.992 1.5624e-06 
540.522 1.56295e-06 
541.053 1.5635e-06 
541.583 1.56405e-06 
542.113 1.5646e-06 
542.644 1.56515e-06 
543.174 1.5657e-06 
543.704 1.56626e-06 
544.234 1.56681e-06 
544.765 1.56737e-06 
545.295 1.56793e-06 
545.825 1.56848e-06 
546.355 1.56904e-06 
546.886 1.5696e-06 
547.416 1.57016e-06 
547.946 1.57072e-06 
548.477 1.57128e-06 
549.007 1.57184e-06 
549.537 1.57241e-06 
550.067 1.57297e-06 
550.598 1.57354e-06 
551.128 1.5741e-06 
551.658 1.57467e-06 
552.188 1.57523e-06 
552.719 1.5758e-06 
553.249 1.57637e-06 
553.779 1.57694e-06 
554.31 1.57751e-06 
554.84 1.57808e-06 
555.37 1.57865e-06 
555.9 1.57923e-06 
556.431 1.5798e-06 
556.961 1.58037e-06 
557.491 1.58095e-06 
558.021 1.58152e-06 
558.552 1.5821e-06 
559.082 1.58268e-06 
559.612 1.58326e-06 
560.143 1.58383e-06 
560.673 1.58441e-06 
561.203 1.58499e-06 
561.733 1.58558e-06 
562.264 1.58616e-06 
562.794 1.58674e-06 
563.324 1.58732e-06 
563.854 1.58791e-06 
564.385 1.58849e-06 
564.915 1.58908e-06 
565.445 1.58966e-06 
565.976 1.59025e-06 
566.506 1.59084e-06 
567.036 1.59142e-06 
567.566 1.59201e-06 
568.097 1.5926e-06 
568.627 1.59319e-06 
569.157 1.59378e-06 
569.688 1.59438e-06 
570.218 1.59497e-06 
570.748 1.59556e-06 
571.278 1.59616e-06 
571.809 1.59675e-06 
572.339 1.59735e-06 
572.869 1.59794e-06 
573.399 1.59854e-06 
573.93 1.59914e-06 
574.46 1.59974e-06 
574.99 1.60034e-06 
575.521 1.60094e-06 
576.051 1.60154e-06 
576.581 1.60214e-06 
577.111 1.60274e-06 
577.642 1.60334e-06 
578.172 1.60395e-06 
578.702 1.60455e-06 
579.232 1.60515e-06 
579.763 1.60576e-06 
580.293 1.60637e-06 
580.823 1.60697e-06 
581.354 1.60758e-06 
581.884 1.60819e-06 
582.414 1.6088e-06 
582.944 1.60941e-06 
583.475 1.61002e-06 
584.005 1.61063e-06 
584.535 1.61124e-06 
585.065 1.61186e-06 
585.596 1.61247e-06 
586.126 1.61308e-06 
586.656 1.6137e-06 
587.187 1.61431e-06 
587.717 1.61493e-06 
588.247 1.61555e-06 
588.777 1.61617e-06 
589.308 1.61678e-06 
589.838 1.6174e-06 
590.368 1.61802e-06 
590.898 1.61864e-06 
591.429 1.61926e-06 
591.959 1.61989e-06 
592.489 1.62051e-06 
593.02 1.62113e-06 
593.55 1.62176e-06 
594.08 1.62238e-06 
594.61 1.62301e-06 
595.141 1.62363e-06 
595.671 1.62426e-06 
596.201 1.62489e-06 
596.731 1.62552e-06 
597.262 1.62615e-06 
597.792 1.62678e-06 
598.322 1.62741e-06 
598.853 1.62804e-06 
599.383 1.62867e-06 
599.913 1.62931e-06 
600.443 1.62994e-06 
600.974 1.63057e-06 
601.504 1.63121e-06 
602.034 1.63185e-06 
602.564 1.63248e-06 
603.095 1.63312e-06 
603.625 1.63376e-06 
604.155 1.6344e-06 
604.686 1.63504e-06 
605.216 1.63568e-06 
605.746 1.63632e-06 
606.276 1.63696e-06 
606.807 1.6376e-06 
607.337 1.63824e-06 
607.867 1.63889e-06 
608.397 1.63953e-06 
608.928 1.64018e-06 
609.458 1.64082e-06 
609.988 1.64147e-06 
610.519 1.64212e-06 
611.049 1.64277e-06 
611.579 1.64342e-06 
612.109 1.64407e-06 
612.64 1.64472e-06 
613.17 1.64537e-06 
613.7 1.64602e-06 
614.23 1.64667e-06 
614.761 1.64733e-06 
615.291 1.64798e-06 
615.821 1.64864e-06 
616.352 1.64929e-06 
616.882 1.64995e-06 
617.412 1.65061e-06 
617.942 1.65127e-06 
618.473 1.65192e-06 
619.003 1.65258e-06 
619.533 1.65324e-06 
620.063 1.6539e-06 
620.594 1.65457e-06 
621.124 1.65523e-06 
621.654 1.65589e-06 
622.185 1.65656e-06 
622.715 1.65722e-06 
623.245 1.65789e-06 
623.775 1.65855e-06 
624.306 1.65922e-06 
624.836 1.65989e-06 
625.366 1.66056e-06 
625.896 1.66123e-06 
626.427 1.6619e-06 
626.957 1.66257e-06 
627.487 1.66324e-06 
628.018 1.66391e-06 
628.548 1.66459e-06 
629.078 1.66526e-06 
629.608 1.66594e-06 
630.139 1.66661e-06 
630.669 1.66729e-06 
631.199 1.66797e-06 
631.729 1.66864e-06 
632.26 1.66932e-06 
632.79 1.67e-06 
633.32 1.67068e-06 
633.851 1.67137e-06 
634.381 1.67205e-06 
634.911 1.67273e-06 
635.441 1.67341e-06 
635.972 1.6741e-06 
636.502 1.67478e-06 
637.032 1.67547e-06 
637.562 1.67616e-06 
638.093 1.67684e-06 
638.623 1.67753e-06 
639.153 1.67822e-06 
639.684 1.67891e-06 
640.214 1.6796e-06 
640.744 1.68029e-06 
641.274 1.68099e-06 
641.805 1.68168e-06 
642.335 1.68237e-06 
642.865 1.68307e-06 
643.396 1.68376e-06 
643.926 1.68446e-06 
644.456 1.68516e-06 
644.986 1.68586e-06 
645.517 1.68655e-06 
646.047 1.68725e-06 
646.577 1.68796e-06 
647.107 1.68866e-06 
647.638 1.68936e-06 
648.168 1.69006e-06 
648.698 1.69077e-06 
649.229 1.69147e-06 
649.759 1.69218e-06 
650.289 1.69288e-06 
650.819 1.69359e-06 
651.35 1.6943e-06 
651.88 1.69501e-06 
652.41 1.69572e-06 
652.94 1.69643e-06 
653.471 1.69714e-06 
654.001 1.69785e-06 
654.531 1.69856e-06 
655.062 1.69928e-06 
655.592 1.69999e-06 
656.122 1.70071e-06 
656.652 1.70142e-06 
657.183 1.70214e-06 
657.713 1.70286e-06 
658.243 1.70358e-06 
658.773 1.7043e-06 
659.304 1.70502e-06 
659.834 1.70574e-06 
660.364 1.70646e-06 
660.895 1.70719e-06 
661.425 1.70791e-06 
661.955 1.70864e-06 
662.485 1.70936e-06 
663.016 1.71009e-06 
663.546 1.71082e-06 
664.076 1.71154e-06 
664.606 1.71227e-06 
665.137 1.713e-06 
665.667 1.71374e-06 
666.197 1.71447e-06 
666.728 1.7152e-06 
667.258 1.71593e-06 
667.788 1.71667e-06 
668.318 1.7174e-06 
668.849 1.71814e-06 
669.379 1.71888e-06 
669.909 1.71962e-06 
670.439 1.72036e-06 
670.97 1.7211e-06 
671.5 1.72184e-06 
672.03 1.72258e-06 
672.561 1.72332e-06 
673.091 1.72406e-06 
673.621 1.72481e-06 
674.151 1.72555e-06 
674.682 1.7263e-06 
675.212 1.72705e-06 
675.742 1.7278e-06 
676.272 1.72855e-06 
676.803 1.7293e-06 
677.333 1.73005e-06 
677.863 1.7308e-06 
678.394 1.73155e-06 
678.924 1.73231e-06 
679.454 1.73306e-06 
679.984 1.73382e-06 
680.515 1.73457e-06 
681.045 1.73533e-06 
681.575 1.73609e-06 
682.105 1.73685e-06 
682.636 1.73761e-06 
683.166 1.73837e-06 
683.696 1.73913e-06 
684.227 1.73989e-06 
684.757 1.74066e-06 
685.287 1.74142e-06 
685.817 1.74219e-06 
686.348 1.74295e-06 
686.878 1.74372e-06 
687.408 1.74449e-06 
687.938 1.74526e-06 
688.469 1.74603e-06 
688.999 1.7468e-06 
689.529 1.74758e-06 
690.06 1.74835e-06 
690.59 1.74912e-06 
691.12 1.7499e-06 
691.65 1.75068e-06 
692.181 1.75145e-06 
692.711 1.75223e-06 
693.241 1.75301e-06 
693.771 1.75379e-06 
694.302 1.75457e-06 
694.832 1.75536e-06 
695.362 1.75614e-06 
695.893 1.75692e-06 
696.423 1.75771e-06 
696.953 1.7585e-06 
697.483 1.75928e-06 
698.014 1.76007e-06 
698.544 1.76086e-06 
699.074 1.76165e-06 
699.604 1.76244e-06 
700.135 1.76323e-06 
700.665 1.76403e-06 
701.195 1.76482e-06 
701.726 1.76562e-06 
702.256 1.76641e-06 
702.786 1.76721e-06 
703.316 1.76801e-06 
703.847 1.76881e-06 
704.377 1.76961e-06 
704.907 1.77041e-06 
705.438 1.77122e-06 
705.968 1.77202e-06 
706.498 1.77282e-06 
707.028 1.77363e-06 
707.559 1.77444e-06 
708.089 1.77524e-06 
708.619 1.77605e-06 
709.149 1.77686e-06 
709.68 1.77768e-06 
710.21 1.77849e-06 
710.74 1.7793e-06 
711.271 1.78011e-06 
711.801 1.78093e-06 
712.331 1.78175e-06 
712.861 1.78256e-06 
713.392 1.78338e-06 
713.922 1.7842e-06 
714.452 1.78502e-06 
714.982 1.78585e-06 
715.513 1.78667e-06 
716.043 1.78749e-06 
716.573 1.78832e-06 
717.104 1.78914e-06 
717.634 1.78997e-06 
718.164 1.7908e-06 
718.694 1.79163e-06 
719.225 1.79246e-06 
719.755 1.79329e-06 
720.285 1.79412e-06 
720.815 1.79496e-06 
721.346 1.79579e-06 
721.876 1.79663e-06 
722.406 1.79747e-06 
722.937 1.7983e-06 
723.467 1.79914e-06 
723.997 1.79998e-06 
724.527 1.80083e-06 
725.058 1.80167e-06 
725.588 1.80251e-06 
726.118 1.80336e-06 
726.648 1.80421e-06 
727.179 1.80505e-06 
727.709 1.8059e-06 
728.239 1.80675e-06 
728.77 1.8076e-06 
729.3 1.80845e-06 
729.83 1.80931e-06 
730.36 1.81016e-06 
730.891 1.81102e-06 
731.421 1.81187e-06 
731.951 1.81273e-06 
732.481 1.81359e-06 
733.012 1.81445e-06 
733.542 1.81531e-06 
734.072 1.81618e-06 
734.603 1.81704e-06 
735.133 1.81791e-06 
735.663 1.81877e-06 
736.193 1.81964e-06 
736.724 1.82051e-06 
737.254 1.82138e-06 
737.784 1.82225e-06 
738.314 1.82312e-06 
738.845 1.824e-06 
739.375 1.82487e-06 
739.905 1.82575e-06 
740.436 1.82662e-06 
740.966 1.8275e-06 
741.496 1.82838e-06 
742.026 1.82926e-06 
742.557 1.83015e-06 
743.087 1.83103e-06 
743.617 1.83192e-06 
744.147 1.8328e-06 
744.678 1.83369e-06 
745.208 1.83458e-06 
745.738 1.83547e-06 
746.269 1.83636e-06 
746.799 1.83725e-06 
747.329 1.83814e-06 
747.859 1.83904e-06 
748.39 1.83994e-06 
748.92 1.84083e-06 
749.45 1.84173e-06 
749.98 1.84263e-06 
750.511 1.84353e-06 
751.041 1.84444e-06 
751.571 1.84534e-06 
752.102 1.84625e-06 
752.632 1.84715e-06 
753.162 1.84806e-06 
753.692 1.84897e-06 
754.223 1.84988e-06 
754.753 1.85079e-06 
755.283 1.85171e-06 
755.813 1.85262e-06 
756.344 1.85354e-06 
756.874 1.85445e-06 
757.404 1.85537e-06 
757.935 1.85629e-06 
758.465 1.85721e-06 
758.995 1.85814e-06 
759.525 1.85906e-06 
760.056 1.85999e-06 
760.586 1.86091e-06 
761.116 1.86184e-06 
761.646 1.86277e-06 
762.177 1.8637e-06 
762.707 1.86464e-06 
763.237 1.86557e-06 
763.768 1.8665e-06 
764.298 1.86744e-06 
764.828 1.86838e-06 
765.358 1.86932e-06 
765.889 1.87026e-06 
766.419 1.8712e-06 
766.949 1.87215e-06 
767.479 1.87309e-06 
768.01 1.87404e-06 
768.54 1.87498e-06 
769.07 1.87593e-06 
769.601 1.87689e-06 
770.131 1.87784e-06 
770.661 1.87879e-06 
771.191 1.87975e-06 
771.722 1.8807e-06 
772.252 1.88166e-06 
772.782 1.88262e-06 
773.312 1.88358e-06 
773.843 1.88455e-06 
774.373 1.88551e-06 
774.903 1.88648e-06 
775.434 1.88744e-06 
775.964 1.88841e-06 
776.494 1.88938e-06 
777.024 1.89035e-06 
777.555 1.89133e-06 
778.085 1.8923e-06 
778.615 1.89328e-06 
779.146 1.89426e-06 
779.676 1.89523e-06 
780.206 1.89621e-06 
780.736 1.8972e-06 
781.267 1.89818e-06 
781.797 1.89917e-06 
782.327 1.90015e-06 
782.857 1.90114e-06 
783.388 1.90213e-06 
783.918 1.90312e-06 
784.448 1.90412e-06 
784.979 1.90511e-06 
785.509 1.90611e-06 
786.039 1.90711e-06 
786.569 1.90811e-06 
787.1 1.90911e-06 
787.63 1.91011e-06 
788.16 1.91112e-06 
788.69 1.91212e-06 
789.221 1.91313e-06 
789.751 1.91414e-06 
790.281 1.91515e-06 
790.812 1.91616e-06 
791.342 1.91718e-06 
791.872 1.91819e-06 
792.402 1.91921e-06 
792.933 1.92023e-06 
793.463 1.92125e-06 
793.993 1.92228e-06 
794.523 1.9233e-06 
795.054 1.92433e-06 
795.584 1.92535e-06 
796.114 1.92638e-06 
796.645 1.92741e-06 
797.175 1.92845e-06 
797.705 1.92948e-06 
798.235 1.93052e-06 
798.766 1.93155e-06 
799.296 1.9326e-06 
799.826 1.93364e-06 
800.356 1.93468e-06 
800.887 1.93573e-06 
801.417 1.93677e-06 
801.947 1.93782e-06 
802.478 1.93887e-06 
803.008 1.93992e-06 
803.538 1.94098e-06 
804.068 1.94203e-06 
804.599 1.94309e-06 
805.129 1.94415e-06 
805.659 1.94521e-06 
806.189 1.94627e-06 
806.72 1.94734e-06 
807.25 1.9484e-06 
807.78 1.94947e-06 
808.311 1.95054e-06 
808.841 1.95161e-06 
809.371 1.95269e-06 
809.901 1.95376e-06 
810.432 1.95484e-06 
810.962 1.95592e-06 
811.492 1.957e-06 
812.022 1.95809e-06 
812.553 1.95917e-06 
813.083 1.96026e-06 
813.613 1.96135e-06 
814.144 1.96244e-06 
814.674 1.96353e-06 
815.204 1.96463e-06 
815.734 1.96572e-06 
816.265 1.96682e-06 
816.795 1.96792e-06 
817.325 1.96902e-06 
817.855 1.97013e-06 
818.386 1.97123e-06 
818.916 1.97234e-06 
819.446 1.97345e-06 
819.977 1.97456e-06 
820.507 1.97568e-06 
821.037 1.9768e-06 
821.567 1.97791e-06 
822.098 1.97903e-06 
822.628 1.98016e-06 
823.158 1.98128e-06 
823.688 1.98241e-06 
824.219 1.98353e-06 
824.749 1.98467e-06 
825.279 1.9858e-06 
825.81 1.98693e-06 
826.34 1.98807e-06 
826.87 1.98921e-06 
827.4 1.99035e-06 
827.931 1.99149e-06 
828.461 1.99264e-06 
828.991 1.99379e-06 
829.521 1.99493e-06 
830.052 1.99609e-06 
830.582 1.99724e-06 
831.112 1.99839e-06 
831.643 1.99955e-06 
832.173 2.00071e-06 
832.703 2.00187e-06 
833.233 2.00304e-06 
833.764 2.00421e-06 
834.294 2.00537e-06 
834.824 2.00655e-06 
835.354 2.00772e-06 
835.885 2.00889e-06 
836.415 2.01007e-06 
836.945 2.01125e-06 
837.476 2.01243e-06 
838.006 2.01362e-06 
838.536 2.0148e-06 
839.066 2.01599e-06 
839.597 2.01719e-06 
840.127 2.01838e-06 
840.657 2.01957e-06 
841.188 2.02077e-06 
841.718 2.02197e-06 
842.248 2.02318e-06 
842.778 2.02438e-06 
843.309 2.02559e-06 
843.839 2.0268e-06 
844.369 2.02801e-06 
844.899 2.02922e-06 
845.43 2.03044e-06 
845.96 2.03166e-06 
846.49 2.03288e-06 
847.021 2.03411e-06 
847.551 2.03533e-06 
848.081 2.03656e-06 
848.611 2.03779e-06 
849.142 2.03903e-06 
849.672 2.04026e-06 
850.202 2.0415e-06 
850.732 2.04275e-06 
851.263 2.04399e-06 
851.793 2.04524e-06 
852.323 2.04648e-06 
852.854 2.04774e-06 
853.384 2.04899e-06 
853.914 2.05025e-06 
854.444 2.05151e-06 
854.975 2.05277e-06 
855.505 2.05403e-06 
856.035 2.0553e-06 
856.565 2.05657e-06 
857.096 2.05784e-06 
857.626 2.05911e-06 
858.156 2.06039e-06 
858.687 2.06167e-06 
859.217 2.06295e-06 
859.747 2.06424e-06 
860.277 2.06553e-06 
860.808 2.06682e-06 
861.338 2.06811e-06 
861.868 2.06941e-06 
862.398 2.0707e-06 
862.929 2.072e-06 
863.459 2.07331e-06 
863.989 2.07462e-06 
864.52 2.07593e-06 
865.05 2.07724e-06 
865.58 2.07855e-06 
866.11 2.07987e-06 
866.641 2.08119e-06 
867.171 2.08252e-06 
867.701 2.08384e-06 
868.231 2.08517e-06 
868.762 2.08651e-06 
869.292 2.08784e-06 
869.822 2.08918e-06 
870.353 2.09052e-06 
870.883 2.09186e-06 
871.413 2.09321e-06 
871.943 2.09456e-06 
872.474 2.09591e-06 
873.004 2.09727e-06 
873.534 2.09863e-06 
874.064 2.09999e-06 
874.595 2.10135e-06 
875.125 2.10272e-06 
875.655 2.10409e-06 
876.186 2.10547e-06 
876.716 2.10684e-06 
877.246 2.10822e-06 
877.776 2.10961e-06 
878.307 2.11099e-06 
878.837 2.11238e-06 
879.367 2.11378e-06 
879.897 2.11517e-06 
880.428 2.11657e-06 
880.958 2.11797e-06 
881.488 2.11938e-06 
882.019 2.12079e-06 
882.549 2.1222e-06 
883.079 2.12361e-06 
883.609 2.12503e-06 
884.14 2.12645e-06 
884.67 2.12788e-06 
885.2 2.12931e-06 
885.73 2.13074e-06 
886.261 2.13217e-06 
886.791 2.13361e-06 
887.321 2.13505e-06 
887.852 2.1365e-06 
888.382 2.13795e-06 
888.912 2.1394e-06 
889.442 2.14085e-06 
889.973 2.14231e-06 
890.503 2.14378e-06 
891.033 2.14524e-06 
891.563 2.14671e-06 
892.094 2.14819e-06 
892.624 2.14966e-06 
893.154 2.15114e-06 
893.685 2.15263e-06 
894.215 2.15411e-06 
894.745 2.1556e-06 
895.275 2.1571e-06 
895.806 2.1586e-06 
896.336 2.1601e-06 
896.866 2.16161e-06 
897.396 2.16311e-06 
897.927 2.16463e-06 
898.457 2.16615e-06 
898.987 2.16767e-06 
899.518 2.16919e-06 
900.048 2.17072e-06 
900.578 2.17225e-06 
901.108 2.17379e-06 
901.639 2.17533e-06 
902.169 2.17687e-06 
902.699 2.17842e-06 
903.229 2.17997e-06 
903.76 2.18153e-06 
904.29 2.18309e-06 
904.82 2.18465e-06 
905.351 2.18622e-06 
905.881 2.18779e-06 
906.411 2.18937e-06 
906.941 2.19095e-06 
907.472 2.19254e-06 
908.002 2.19413e-06 
908.532 2.19572e-06 
909.062 2.19732e-06 
