#energy geo_1 
400 6.2928e-06 
400.53 6.29865e-06 
401.061 6.30449e-06 
401.591 6.3103e-06 
402.121 6.31609e-06 
402.651 6.32185e-06 
403.182 6.32755e-06 
403.712 6.33322e-06 
404.242 6.33884e-06 
404.772 6.3444e-06 
405.303 6.34988e-06 
405.833 6.35529e-06 
406.363 6.36062e-06 
406.894 6.36585e-06 
407.424 6.37097e-06 
407.954 6.37598e-06 
408.484 6.38087e-06 
409.015 6.3856e-06 
409.545 6.39019e-06 
410.075 6.39462e-06 
410.605 6.39887e-06 
411.136 6.40291e-06 
411.666 6.40676e-06 
412.196 6.41038e-06 
412.727 6.41375e-06 
413.257 6.41686e-06 
413.787 6.41971e-06 
414.317 6.42226e-06 
414.848 6.42448e-06 
415.378 6.42637e-06 
415.908 6.42793e-06 
416.438 6.4291e-06 
416.969 6.42987e-06 
417.499 6.43024e-06 
418.029 6.43018e-06 
418.56 6.42965e-06 
419.09 6.42864e-06 
419.62 6.42716e-06 
420.15 6.42516e-06 
420.681 6.42261e-06 
421.211 6.41952e-06 
421.741 6.41588e-06 
422.271 6.41165e-06 
422.802 6.40681e-06 
423.332 6.40139e-06 
423.862 6.39537e-06 
424.393 6.38873e-06 
424.923 6.38148e-06 
425.453 6.37364e-06 
425.983 6.36522e-06 
426.514 6.35622e-06 
427.044 6.34669e-06 
427.574 6.3367e-06 
428.104 6.32626e-06 
428.635 6.31545e-06 
429.165 6.3044e-06 
429.695 6.29323e-06 
430.226 6.28208e-06 
430.756 6.27116e-06 
431.286 6.26077e-06 
431.816 6.2512e-06 
432.347 6.24292e-06 
432.877 6.2365e-06 
433.407 6.23276e-06 
433.938 6.2327e-06 
434.468 6.23777e-06 
434.998 6.25004e-06 
435.528 6.27241e-06 
436.059 6.30918e-06 
436.589 6.36694e-06 
437.119 6.45616e-06 
437.649 6.59415e-06 
438.18 6.81137e-06 
438.71 7.16507e-06 
439.24 7.77221e-06 
439.771 8.8986e-06 
440.301 1.12259e-05 
440.831 1.66517e-05 
441.361 2.82111e-05 
441.892 3.09775e-05 
442.422 1.90977e-05 
442.952 1.22009e-05 
443.482 9.20656e-06 
444.013 7.77921e-06 
444.543 7.00565e-06 
445.073 6.54024e-06 
445.604 6.23625e-06 
446.134 6.02412e-06 
446.664 5.86771e-06 
447.194 5.74676e-06 
447.725 5.64928e-06 
448.255 5.5679e-06 
448.785 5.49783e-06 
449.315 5.43583e-06 
449.846 5.37975e-06 
450.376 5.32817e-06 
450.906 5.28007e-06 
451.437 5.23466e-06 
451.967 5.19159e-06 
452.497 5.1507e-06 
453.027 5.11188e-06 
453.558 5.07521e-06 
454.088 5.04104e-06 
454.618 5.00987e-06 
455.148 4.98232e-06 
455.679 4.95938e-06 
456.209 4.94242e-06 
456.739 4.93325e-06 
457.27 4.9343e-06 
457.8 4.94909e-06 
458.33 4.98263e-06 
458.86 5.04208e-06 
459.391 5.13819e-06 
459.921 5.28774e-06 
460.451 5.51778e-06 
460.981 5.87424e-06 
461.512 6.44006e-06 
462.042 7.37677e-06 
462.572 9.02953e-06 
463.103 1.22254e-05 
463.633 1.91974e-05 
464.163 3.57672e-05 
464.693 5.94715e-05 
465.224 4.52782e-05 
465.754 2.42367e-05 
466.284 1.4248e-05 
466.814 9.81306e-06 
467.345 7.59476e-06 
467.875 6.35068e-06 
468.405 5.58902e-06 
468.936 5.09076e-06 
469.466 4.74766e-06 
469.996 4.50166e-06 
470.526 4.31941e-06 
471.057 4.18071e-06 
471.587 4.07277e-06 
472.117 3.98715e-06 
472.647 3.91813e-06 
473.178 3.8617e-06 
473.708 3.815e-06 
474.238 3.77594e-06 
474.769 3.74296e-06 
475.299 3.71489e-06 
475.829 3.69081e-06 
476.359 3.67002e-06 
476.89 3.65197e-06 
477.42 3.63622e-06 
477.95 3.6224e-06 
478.48 3.61023e-06 
479.011 3.59947e-06 
479.541 3.58993e-06 
480.071 3.58145e-06 
480.602 3.57388e-06 
481.132 3.56711e-06 
481.662 3.56105e-06 
482.192 3.55562e-06 
482.723 3.55074e-06 
483.253 3.54635e-06 
483.783 3.5424e-06 
484.313 3.53885e-06 
484.844 3.53565e-06 
485.374 3.53277e-06 
485.904 3.53017e-06 
486.435 3.52784e-06 
486.965 3.52575e-06 
487.495 3.52388e-06 
488.025 3.5222e-06 
488.556 3.52071e-06 
489.086 3.51938e-06 
489.616 3.5182e-06 
490.146 3.51717e-06 
490.677 3.51627e-06 
491.207 3.51548e-06 
491.737 3.51481e-06 
492.268 3.51425e-06 
492.798 3.51377e-06 
493.328 3.51339e-06 
493.858 3.51309e-06 
494.389 3.51287e-06 
494.919 3.51273e-06 
495.449 3.51265e-06 
495.979 3.51263e-06 
496.51 3.51268e-06 
497.04 3.51278e-06 
497.57 3.51294e-06 
498.101 3.51314e-06 
498.631 3.5134e-06 
499.161 3.51369e-06 
499.691 3.51403e-06 
500.222 3.51441e-06 
500.752 3.51483e-06 
501.282 3.51528e-06 
501.812 3.51577e-06 
502.343 3.51629e-06 
502.873 3.51684e-06 
503.403 3.51742e-06 
503.934 3.51803e-06 
504.464 3.51866e-06 
504.994 3.51932e-06 
505.524 3.52001e-06 
506.055 3.52071e-06 
506.585 3.52144e-06 
507.115 3.52219e-06 
507.646 3.52296e-06 
508.176 3.52375e-06 
508.706 3.52456e-06 
509.236 3.52539e-06 
509.767 3.52624e-06 
510.297 3.5271e-06 
510.827 3.52797e-06 
511.357 3.52887e-06 
511.888 3.52977e-06 
512.418 3.53069e-06 
512.948 3.53163e-06 
513.479 3.53258e-06 
514.009 3.53354e-06 
514.539 3.53451e-06 
515.069 3.5355e-06 
515.6 3.5365e-06 
516.13 3.53751e-06 
516.66 3.53853e-06 
517.19 3.53956e-06 
517.721 3.5406e-06 
518.251 3.54165e-06 
518.781 3.54271e-06 
519.312 3.54378e-06 
519.842 3.54486e-06 
520.372 3.54595e-06 
520.902 3.54704e-06 
521.433 3.54815e-06 
521.963 3.54926e-06 
522.493 3.55038e-06 
523.023 3.55151e-06 
523.554 3.55265e-06 
524.084 3.55379e-06 
524.614 3.55494e-06 
525.145 3.5561e-06 
525.675 3.55727e-06 
526.205 3.55844e-06 
526.735 3.55962e-06 
527.266 3.5608e-06 
527.796 3.56199e-06 
528.326 3.56319e-06 
528.856 3.5644e-06 
529.387 3.56561e-06 
529.917 3.56682e-06 
530.447 3.56804e-06 
530.978 3.56927e-06 
531.508 3.57051e-06 
532.038 3.57174e-06 
532.568 3.57299e-06 
533.099 3.57424e-06 
533.629 3.57549e-06 
534.159 3.57675e-06 
534.689 3.57801e-06 
535.22 3.57928e-06 
535.75 3.58056e-06 
536.28 3.58184e-06 
536.811 3.58312e-06 
537.341 3.58441e-06 
537.871 3.5857e-06 
538.401 3.587e-06 
538.932 3.5883e-06 
539.462 3.58961e-06 
539.992 3.59092e-06 
540.522 3.59223e-06 
541.053 3.59356e-06 
541.583 3.59488e-06 
542.113 3.59621e-06 
542.644 3.59754e-06 
543.174 3.59887e-06 
543.704 3.60021e-06 
544.234 3.60156e-06 
544.765 3.60291e-06 
545.295 3.60426e-06 
545.825 3.60561e-06 
546.355 3.60697e-06 
546.886 3.60834e-06 
547.416 3.6097e-06 
547.946 3.61108e-06 
548.477 3.61245e-06 
549.007 3.61383e-06 
549.537 3.61521e-06 
550.067 3.6166e-06 
550.598 3.61799e-06 
551.128 3.61938e-06 
551.658 3.62078e-06 
552.188 3.62218e-06 
552.719 3.62358e-06 
553.249 3.62499e-06 
553.779 3.6264e-06 
554.31 3.62781e-06 
554.84 3.62923e-06 
555.37 3.63065e-06 
555.9 3.63207e-06 
556.431 3.6335e-06 
556.961 3.63493e-06 
557.491 3.63637e-06 
558.021 3.6378e-06 
558.552 3.63924e-06 
559.082 3.64069e-06 
559.612 3.64214e-06 
560.143 3.64359e-06 
560.673 3.64504e-06 
561.203 3.6465e-06 
561.733 3.64796e-06 
562.264 3.64942e-06 
562.794 3.65089e-06 
563.324 3.65236e-06 
563.854 3.65383e-06 
564.385 3.65531e-06 
564.915 3.65679e-06 
565.445 3.65827e-06 
565.976 3.65976e-06 
566.506 3.66125e-06 
567.036 3.66274e-06 
567.566 3.66423e-06 
568.097 3.66573e-06 
568.627 3.66723e-06 
569.157 3.66874e-06 
569.688 3.67024e-06 
570.218 3.67176e-06 
570.748 3.67327e-06 
571.278 3.67479e-06 
571.809 3.67631e-06 
572.339 3.67783e-06 
572.869 3.67936e-06 
573.399 3.68089e-06 
573.93 3.68242e-06 
574.46 3.68395e-06 
574.99 3.68549e-06 
575.521 3.68703e-06 
576.051 3.68858e-06 
576.581 3.69013e-06 
577.111 3.69167e-06 
577.642 3.69323e-06 
578.172 3.69478e-06 
578.702 3.69635e-06 
579.232 3.69791e-06 
579.763 3.69947e-06 
580.293 3.70104e-06 
580.823 3.70261e-06 
581.354 3.70419e-06 
581.884 3.70577e-06 
582.414 3.70735e-06 
582.944 3.70893e-06 
583.475 3.71052e-06 
584.005 3.71211e-06 
584.535 3.7137e-06 
585.065 3.7153e-06 
585.596 3.7169e-06 
586.126 3.7185e-06 
586.656 3.72011e-06 
587.187 3.72171e-06 
587.717 3.72332e-06 
588.247 3.72494e-06 
588.777 3.72656e-06 
589.308 3.72818e-06 
589.838 3.7298e-06 
590.368 3.73143e-06 
590.898 3.73306e-06 
591.429 3.73469e-06 
591.959 3.73633e-06 
592.489 3.73797e-06 
593.02 3.73961e-06 
593.55 3.74125e-06 
594.08 3.7429e-06 
594.61 3.74455e-06 
595.141 3.74621e-06 
595.671 3.74786e-06 
596.201 3.74953e-06 
596.731 3.75119e-06 
597.262 3.75286e-06 
597.792 3.75453e-06 
598.322 3.7562e-06 
598.853 3.75787e-06 
599.383 3.75955e-06 
599.913 3.76124e-06 
600.443 3.76292e-06 
600.974 3.76461e-06 
601.504 3.7663e-06 
602.034 3.768e-06 
602.564 3.7697e-06 
603.095 3.7714e-06 
603.625 3.7731e-06 
604.155 3.77481e-06 
604.686 3.77652e-06 
605.216 3.77823e-06 
605.746 3.77995e-06 
606.276 3.78167e-06 
606.807 3.7834e-06 
607.337 3.78512e-06 
607.867 3.78685e-06 
608.397 3.78859e-06 
608.928 3.79032e-06 
609.458 3.79206e-06 
609.988 3.79381e-06 
610.519 3.79555e-06 
611.049 3.7973e-06 
611.579 3.79905e-06 
612.109 3.80081e-06 
612.64 3.80257e-06 
613.17 3.80433e-06 
613.7 3.8061e-06 
614.23 3.80787e-06 
614.761 3.80964e-06 
615.291 3.81142e-06 
615.821 3.8132e-06 
616.352 3.81498e-06 
616.882 3.81677e-06 
617.412 3.81855e-06 
617.942 3.82035e-06 
618.473 3.82214e-06 
619.003 3.82394e-06 
619.533 3.82575e-06 
620.063 3.82755e-06 
620.594 3.82936e-06 
621.124 3.83118e-06 
621.654 3.83299e-06 
622.185 3.83481e-06 
622.715 3.83664e-06 
623.245 3.83846e-06 
623.775 3.84029e-06 
624.306 3.84213e-06 
624.836 3.84396e-06 
625.366 3.8458e-06 
625.896 3.84765e-06 
626.427 3.8495e-06 
626.957 3.85135e-06 
627.487 3.8532e-06 
628.018 3.85506e-06 
628.548 3.85692e-06 
629.078 3.85879e-06 
629.608 3.86066e-06 
630.139 3.86253e-06 
630.669 3.86441e-06 
631.199 3.86629e-06 
631.729 3.86817e-06 
632.26 3.87006e-06 
632.79 3.87195e-06 
633.32 3.87384e-06 
633.851 3.87574e-06 
634.381 3.87764e-06 
634.911 3.87955e-06 
635.441 3.88145e-06 
635.972 3.88337e-06 
636.502 3.88528e-06 
637.032 3.8872e-06 
637.562 3.88913e-06 
638.093 3.89106e-06 
638.623 3.89299e-06 
639.153 3.89492e-06 
639.684 3.89686e-06 
640.214 3.8988e-06 
640.744 3.90075e-06 
641.274 3.9027e-06 
641.805 3.90465e-06 
642.335 3.90661e-06 
642.865 3.90857e-06 
643.396 3.91054e-06 
643.926 3.91251e-06 
644.456 3.91448e-06 
644.986 3.91646e-06 
645.517 3.91844e-06 
646.047 3.92043e-06 
646.577 3.92242e-06 
647.107 3.92441e-06 
647.638 3.92641e-06 
648.168 3.92841e-06 
648.698 3.93041e-06 
649.229 3.93242e-06 
649.759 3.93443e-06 
650.289 3.93645e-06 
650.819 3.93847e-06 
651.35 3.9405e-06 
651.88 3.94253e-06 
652.41 3.94456e-06 
652.94 3.9466e-06 
653.471 3.94864e-06 
654.001 3.95068e-06 
654.531 3.95274e-06 
655.062 3.95479e-06 
655.592 3.95685e-06 
656.122 3.95891e-06 
656.652 3.96098e-06 
657.183 3.96305e-06 
657.713 3.96512e-06 
658.243 3.9672e-06 
658.773 3.96928e-06 
659.304 3.97137e-06 
659.834 3.97347e-06 
660.364 3.97556e-06 
660.895 3.97766e-06 
661.425 3.97977e-06 
661.955 3.98188e-06 
662.485 3.98399e-06 
663.016 3.98611e-06 
663.546 3.98823e-06 
664.076 3.99036e-06 
664.606 3.99249e-06 
665.137 3.99463e-06 
665.667 3.99677e-06 
666.197 3.99891e-06 
666.728 4.00106e-06 
667.258 4.00321e-06 
667.788 4.00537e-06 
668.318 4.00754e-06 
668.849 4.0097e-06 
669.379 4.01188e-06 
669.909 4.01405e-06 
670.439 4.01623e-06 
670.97 4.01842e-06 
671.5 4.02061e-06 
672.03 4.02281e-06 
672.561 4.02501e-06 
673.091 4.02721e-06 
673.621 4.02942e-06 
674.151 4.03163e-06 
674.682 4.03386e-06 
675.212 4.03608e-06 
675.742 4.03831e-06 
676.272 4.04054e-06 
676.803 4.04278e-06 
677.333 4.04502e-06 
677.863 4.04727e-06 
678.394 4.04952e-06 
678.924 4.05178e-06 
679.454 4.05405e-06 
679.984 4.05631e-06 
680.515 4.05859e-06 
681.045 4.06086e-06 
681.575 4.06315e-06 
682.105 4.06543e-06 
682.636 4.06773e-06 
683.166 4.07003e-06 
683.696 4.07233e-06 
684.227 4.07464e-06 
684.757 4.07695e-06 
685.287 4.07927e-06 
685.817 4.08159e-06 
686.348 4.08393e-06 
686.878 4.08626e-06 
687.408 4.0886e-06 
687.938 4.09094e-06 
688.469 4.09329e-06 
688.999 4.09565e-06 
689.529 4.09801e-06 
690.06 4.10038e-06 
690.59 4.10275e-06 
691.12 4.10513e-06 
691.65 4.10751e-06 
692.181 4.1099e-06 
692.711 4.11229e-06 
693.241 4.11469e-06 
693.771 4.1171e-06 
694.302 4.11951e-06 
694.832 4.12192e-06 
695.362 4.12434e-06 
695.893 4.12677e-06 
696.423 4.12921e-06 
696.953 4.13164e-06 
697.483 4.13409e-06 
698.014 4.13654e-06 
698.544 4.13899e-06 
699.074 4.14146e-06 
699.604 4.14393e-06 
700.135 4.1464e-06 
700.665 4.14888e-06 
701.195 4.15136e-06 
701.726 4.15386e-06 
702.256 4.15635e-06 
702.786 4.15886e-06 
703.316 4.16137e-06 
703.847 4.16388e-06 
704.377 4.16641e-06 
704.907 4.16893e-06 
705.438 4.17147e-06 
705.968 4.17401e-06 
706.498 4.17655e-06 
707.028 4.1791e-06 
707.559 4.18166e-06 
708.089 4.18423e-06 
708.619 4.1868e-06 
709.149 4.18938e-06 
709.68 4.19196e-06 
710.21 4.19455e-06 
710.74 4.19715e-06 
711.271 4.19976e-06 
711.801 4.20237e-06 
712.331 4.20498e-06 
712.861 4.20761e-06 
713.392 4.21024e-06 
713.922 4.21287e-06 
714.452 4.21552e-06 
714.982 4.21817e-06 
715.513 4.22083e-06 
716.043 4.22349e-06 
716.573 4.22616e-06 
717.104 4.22884e-06 
717.634 4.23152e-06 
718.164 4.23421e-06 
718.694 4.23691e-06 
719.225 4.23962e-06 
719.755 4.24233e-06 
720.285 4.24505e-06 
720.815 4.24778e-06 
721.346 4.25051e-06 
721.876 4.25325e-06 
722.406 4.25601e-06 
722.937 4.25876e-06 
723.467 4.26152e-06 
723.997 4.26429e-06 
724.527 4.26707e-06 
725.058 4.26986e-06 
725.588 4.27265e-06 
726.118 4.27545e-06 
726.648 4.27826e-06 
727.179 4.28108e-06 
727.709 4.2839e-06 
728.239 4.28674e-06 
728.77 4.28958e-06 
729.3 4.29242e-06 
729.83 4.29528e-06 
730.36 4.29814e-06 
730.891 4.30101e-06 
731.421 4.30389e-06 
731.951 4.30678e-06 
732.481 4.30968e-06 
733.012 4.31258e-06 
733.542 4.31549e-06 
734.072 4.31841e-06 
734.603 4.32134e-06 
735.133 4.32428e-06 
735.663 4.32723e-06 
736.193 4.33018e-06 
736.724 4.33314e-06 
737.254 4.33612e-06 
737.784 4.3391e-06 
738.314 4.34208e-06 
738.845 4.34508e-06 
739.375 4.34809e-06 
739.905 4.3511e-06 
740.436 4.35413e-06 
740.966 4.35716e-06 
741.496 4.36021e-06 
742.026 4.36326e-06 
742.557 4.36632e-06 
743.087 4.36939e-06 
743.617 4.37247e-06 
744.147 4.37556e-06 
744.678 4.37866e-06 
745.208 4.38177e-06 
745.738 4.38488e-06 
746.269 4.38801e-06 
746.799 4.39115e-06 
747.329 4.3943e-06 
747.859 4.39746e-06 
748.39 4.40062e-06 
748.92 4.4038e-06 
749.45 4.40699e-06 
749.98 4.41019e-06 
750.511 4.41339e-06 
751.041 4.41661e-06 
751.571 4.41984e-06 
752.102 4.42308e-06 
752.632 4.42633e-06 
753.162 4.42959e-06 
753.692 4.43287e-06 
754.223 4.43615e-06 
754.753 4.43944e-06 
755.283 4.44275e-06 
755.813 4.44607e-06 
756.344 4.44939e-06 
756.874 4.45273e-06 
757.404 4.45608e-06 
757.935 4.45944e-06 
758.465 4.46282e-06 
758.995 4.4662e-06 
759.525 4.4696e-06 
760.056 4.47301e-06 
760.586 4.47643e-06 
761.116 4.47986e-06 
761.646 4.48331e-06 
762.177 4.48677e-06 
762.707 4.49024e-06 
763.237 4.49372e-06 
763.768 4.49722e-06 
764.298 4.50072e-06 
764.828 4.50424e-06 
765.358 4.50778e-06 
765.889 4.51132e-06 
766.419 4.51488e-06 
766.949 4.51846e-06 
767.479 4.52204e-06 
768.01 4.52564e-06 
768.54 4.52926e-06 
769.07 4.53288e-06 
769.601 4.53652e-06 
770.131 4.54017e-06 
770.661 4.54384e-06 
771.191 4.54752e-06 
771.722 4.55121e-06 
772.252 4.55492e-06 
772.782 4.55864e-06 
773.312 4.56237e-06 
773.843 4.56612e-06 
774.373 4.56988e-06 
774.903 4.57366e-06 
775.434 4.57745e-06 
775.964 4.58125e-06 
776.494 4.58506e-06 
777.024 4.58889e-06 
777.555 4.59273e-06 
778.085 4.59658e-06 
778.615 4.60044e-06 
779.146 4.60432e-06 
779.676 4.60821e-06 
780.206 4.61211e-06 
780.736 4.61602e-06 
781.267 4.61994e-06 
781.797 4.62387e-06 
782.327 4.62781e-06 
782.857 4.63176e-06 
783.388 4.63572e-06 
783.918 4.63968e-06 
784.448 4.64365e-06 
784.979 4.64763e-06 
785.509 4.65162e-06 
786.039 4.6556e-06 
786.569 4.65959e-06 
787.1 4.66359e-06 
787.63 4.66758e-06 
788.16 4.67158e-06 
788.69 4.67557e-06 
789.221 4.67956e-06 
789.751 4.68354e-06 
790.281 4.68752e-06 
790.812 4.69149e-06 
791.342 4.69545e-06 
791.872 4.6994e-06 
792.402 4.70334e-06 
792.933 4.70726e-06 
793.463 4.71116e-06 
793.993 4.71504e-06 
794.523 4.71891e-06 
795.054 4.72274e-06 
795.584 4.72655e-06 
796.114 4.73033e-06 
796.645 4.73408e-06 
797.175 4.7378e-06 
797.705 4.74147e-06 
798.235 4.74511e-06 
798.766 4.74871e-06 
799.296 4.75226e-06 
799.826 4.75577e-06 
800.356 4.75922e-06 
800.887 4.76263e-06 
801.417 4.76598e-06 
801.947 4.76928e-06 
802.478 4.77253e-06 
803.008 4.77571e-06 
803.538 4.77885e-06 
804.068 4.78192e-06 
804.599 4.78495e-06 
805.129 4.78791e-06 
805.659 4.79083e-06 
806.189 4.7937e-06 
806.72 4.79653e-06 
807.25 4.79932e-06 
807.78 4.80209e-06 
808.311 4.80483e-06 
808.841 4.80758e-06 
809.371 4.81034e-06 
809.901 4.81312e-06 
810.432 4.81596e-06 
810.962 4.81887e-06 
811.492 4.82189e-06 
812.022 4.82505e-06 
812.553 4.82841e-06 
813.083 4.832e-06 
813.613 4.83589e-06 
814.144 4.84016e-06 
814.674 4.84489e-06 
815.204 4.85019e-06 
815.734 4.85616e-06 
816.265 4.86298e-06 
816.795 4.8708e-06 
817.325 4.87985e-06 
817.855 4.89038e-06 
818.386 4.90271e-06 
818.916 4.91723e-06 
819.446 4.93442e-06 
819.977 4.95488e-06 
820.507 4.97937e-06 
821.037 5.00882e-06 
821.567 5.04444e-06 
822.098 5.08776e-06 
822.628 5.14074e-06 
823.158 5.20589e-06 
823.688 5.28644e-06 
824.219 5.38641e-06 
824.749 5.51075e-06 
825.279 5.66511e-06 
825.81 5.85512e-06 
826.34 6.08431e-06 
826.87 6.34989e-06 
827.4 6.63593e-06 
827.931 6.90641e-06 
828.461 7.10621e-06 
828.991 7.18018e-06 
829.521 7.10424e-06 
830.052 6.90163e-06 
830.582 6.62696e-06 
831.112 6.33533e-06 
831.643 6.06329e-06 
832.173 5.82733e-06 
832.703 5.6306e-06 
833.233 5.46979e-06 
833.764 5.33935e-06 
834.294 5.23365e-06 
834.824 5.14777e-06 
835.354 5.07766e-06 
835.885 5.02013e-06 
836.415 4.97268e-06 
836.945 4.93337e-06 
837.476 4.90072e-06 
838.006 4.87358e-06 
838.536 4.85106e-06 
839.066 4.8325e-06 
839.597 4.81737e-06 
840.127 4.80532e-06 
840.657 4.7961e-06 
841.188 4.78954e-06 
841.718 4.78559e-06 
842.248 4.78429e-06 
842.778 4.78576e-06 
843.309 4.79024e-06 
843.839 4.79808e-06 
844.369 4.80978e-06 
844.899 4.82601e-06 
845.43 4.84767e-06 
845.96 4.87594e-06 
846.49 4.91235e-06 
847.021 4.95886e-06 
847.551 5.01791e-06 
848.081 5.0924e-06 
848.611 5.18542e-06 
849.142 5.29954e-06 
849.672 5.43505e-06 
850.202 5.58697e-06 
850.732 5.74111e-06 
851.263 5.87247e-06 
851.793 5.95127e-06 
852.323 5.95791e-06 
852.854 5.89611e-06 
853.384 5.79085e-06 
853.914 5.67354e-06 
854.444 5.5689e-06 
854.975 5.49119e-06 
855.505 5.44683e-06 
856.035 5.43817e-06 
856.565 5.466e-06 
857.096 5.53019e-06 
857.626 5.62849e-06 
858.156 5.75337e-06 
858.687 5.88758e-06 
859.217 6.00175e-06 
859.747 6.06025e-06 
860.277 6.03744e-06 
860.808 5.93349e-06 
861.338 5.77359e-06 
861.868 5.5917e-06 
862.398 5.41472e-06 
862.929 5.25722e-06 
863.459 5.12388e-06 
863.989 5.01392e-06 
864.52 4.92432e-06 
865.05 4.85156e-06 
865.58 4.7924e-06 
866.11 4.74416e-06 
866.641 4.70463e-06 
867.171 4.67212e-06 
867.701 4.64529e-06 
868.231 4.62309e-06 
868.762 4.60472e-06 
869.292 4.58956e-06 
869.822 4.57711e-06 
870.353 4.56701e-06 
870.883 4.55896e-06 
871.413 4.55277e-06 
871.943 4.54829e-06 
872.474 4.54541e-06 
873.004 4.54412e-06 
873.534 4.54442e-06 
874.064 4.54638e-06 
874.595 4.55014e-06 
875.125 4.5559e-06 
875.655 4.56396e-06 
876.186 4.57472e-06 
876.716 4.58871e-06 
877.246 4.60665e-06 
877.776 4.62946e-06 
878.307 4.65832e-06 
878.837 4.69466e-06 
879.367 4.7401e-06 
879.897 4.79618e-06 
880.428 4.8637e-06 
880.958 4.94135e-06 
881.488 5.02367e-06 
882.019 5.09922e-06 
882.549 5.15161e-06 
883.079 5.16584e-06 
883.609 5.1371e-06 
884.14 5.07406e-06 
884.67 4.99303e-06 
885.2 4.90925e-06 
885.73 4.83222e-06 
886.261 4.76592e-06 
886.791 4.71081e-06 
887.321 4.66577e-06 
887.852 4.62917e-06 
888.382 4.59939e-06 
888.912 4.57506e-06 
889.442 4.55505e-06 
889.973 4.53848e-06 
890.503 4.52466e-06 
891.033 4.51307e-06 
891.563 4.5033e-06 
892.094 4.49505e-06 
892.624 4.48808e-06 
893.154 4.48224e-06 
893.685 4.4774e-06 
894.215 4.47348e-06 
894.745 4.47046e-06 
895.275 4.46832e-06 
895.806 4.4671e-06 
896.336 4.46685e-06 
896.866 4.46767e-06 
897.396 4.46968e-06 
897.927 4.47305e-06 
898.457 4.47799e-06 
898.987 4.48476e-06 
899.518 4.4937e-06 
900.048 4.50521e-06 
900.578 4.51979e-06 
901.108 4.53805e-06 
901.639 4.56077e-06 
902.169 4.58889e-06 
902.699 4.62361e-06 
903.229 4.66642e-06 
903.76 4.71924e-06 
904.29 4.78448e-06 
904.82 4.86523e-06 
905.351 4.96547e-06 
905.881 5.09028e-06 
906.411 5.24612e-06 
906.941 5.44106e-06 
907.472 5.68472e-06 
908.002 5.98765e-06 
908.532 6.35907e-06 
909.062 6.80174e-06 
