#energy geo_1 
400 1.49714e-06 
400.53 1.49747e-06 
401.061 1.4978e-06 
401.591 1.49813e-06 
402.121 1.49846e-06 
402.651 1.49879e-06 
403.182 1.49911e-06 
403.712 1.49944e-06 
404.242 1.49977e-06 
404.772 1.5001e-06 
405.303 1.50043e-06 
405.833 1.50076e-06 
406.363 1.50109e-06 
406.894 1.50142e-06 
407.424 1.50175e-06 
407.954 1.50208e-06 
408.484 1.50241e-06 
409.015 1.50274e-06 
409.545 1.50307e-06 
410.075 1.5034e-06 
410.605 1.50373e-06 
411.136 1.50406e-06 
411.666 1.50439e-06 
412.196 1.50473e-06 
412.727 1.50506e-06 
413.257 1.50539e-06 
413.787 1.50572e-06 
414.317 1.50605e-06 
414.848 1.50638e-06 
415.378 1.50672e-06 
415.908 1.50705e-06 
416.438 1.50738e-06 
416.969 1.50772e-06 
417.499 1.50805e-06 
418.029 1.50839e-06 
418.56 1.50872e-06 
419.09 1.50906e-06 
419.62 1.5094e-06 
420.15 1.50973e-06 
420.681 1.51007e-06 
421.211 1.51041e-06 
421.741 1.51075e-06 
422.271 1.51109e-06 
422.802 1.51143e-06 
423.332 1.51176e-06 
423.862 1.5121e-06 
424.393 1.51245e-06 
424.923 1.51279e-06 
425.453 1.51313e-06 
425.983 1.51347e-06 
426.514 1.51381e-06 
427.044 1.51416e-06 
427.574 1.5145e-06 
428.104 1.51484e-06 
428.635 1.51519e-06 
429.165 1.51553e-06 
429.695 1.51587e-06 
430.226 1.51622e-06 
430.756 1.51656e-06 
431.286 1.51691e-06 
431.816 1.51725e-06 
432.347 1.5176e-06 
432.877 1.51794e-06 
433.407 1.51829e-06 
433.938 1.51863e-06 
434.468 1.51898e-06 
434.998 1.51932e-06 
435.528 1.51967e-06 
436.059 1.52001e-06 
436.589 1.52036e-06 
437.119 1.52071e-06 
437.649 1.52106e-06 
438.18 1.5214e-06 
438.71 1.52175e-06 
439.24 1.5221e-06 
439.771 1.52244e-06 
440.301 1.52279e-06 
440.831 1.52314e-06 
441.361 1.52349e-06 
441.892 1.52383e-06 
442.422 1.52418e-06 
442.952 1.52453e-06 
443.482 1.52488e-06 
444.013 1.52523e-06 
444.543 1.52558e-06 
445.073 1.52593e-06 
445.604 1.52628e-06 
446.134 1.52663e-06 
446.664 1.52698e-06 
447.194 1.52733e-06 
447.725 1.52768e-06 
448.255 1.52803e-06 
448.785 1.52839e-06 
449.315 1.52874e-06 
449.846 1.52909e-06 
450.376 1.52945e-06 
450.906 1.5298e-06 
451.437 1.53015e-06 
451.967 1.53051e-06 
452.497 1.53087e-06 
453.027 1.53122e-06 
453.558 1.53158e-06 
454.088 1.53194e-06 
454.618 1.5323e-06 
455.148 1.53266e-06 
455.679 1.53302e-06 
456.209 1.53338e-06 
456.739 1.53374e-06 
457.27 1.5341e-06 
457.8 1.53446e-06 
458.33 1.53483e-06 
458.86 1.53519e-06 
459.391 1.53556e-06 
459.921 1.53592e-06 
460.451 1.53629e-06 
460.981 1.53666e-06 
461.512 1.53702e-06 
462.042 1.53739e-06 
462.572 1.53775e-06 
463.103 1.53812e-06 
463.633 1.53848e-06 
464.163 1.53884e-06 
464.693 1.53921e-06 
465.224 1.53957e-06 
465.754 1.53993e-06 
466.284 1.5403e-06 
466.814 1.54066e-06 
467.345 1.54103e-06 
467.875 1.54139e-06 
468.405 1.54175e-06 
468.936 1.54212e-06 
469.466 1.54248e-06 
469.996 1.54285e-06 
470.526 1.54321e-06 
471.057 1.54358e-06 
471.587 1.54395e-06 
472.117 1.54431e-06 
472.647 1.54468e-06 
473.178 1.54505e-06 
473.708 1.54542e-06 
474.238 1.54579e-06 
474.769 1.54616e-06 
475.299 1.54653e-06 
475.829 1.54689e-06 
476.359 1.54727e-06 
476.89 1.54764e-06 
477.42 1.54801e-06 
477.95 1.54838e-06 
478.48 1.54875e-06 
479.011 1.54912e-06 
479.541 1.5495e-06 
480.071 1.54987e-06 
480.602 1.55024e-06 
481.132 1.55062e-06 
481.662 1.55099e-06 
482.192 1.55137e-06 
482.723 1.55175e-06 
483.253 1.55212e-06 
483.783 1.5525e-06 
484.313 1.55288e-06 
484.844 1.55326e-06 
485.374 1.55364e-06 
485.904 1.55401e-06 
486.435 1.55439e-06 
486.965 1.55477e-06 
487.495 1.55515e-06 
488.025 1.55553e-06 
488.556 1.55591e-06 
489.086 1.55629e-06 
489.616 1.55668e-06 
490.146 1.55706e-06 
490.677 1.55744e-06 
491.207 1.55782e-06 
491.737 1.5582e-06 
492.268 1.55859e-06 
492.798 1.55897e-06 
493.328 1.55935e-06 
493.858 1.55974e-06 
494.389 1.56012e-06 
494.919 1.56051e-06 
495.449 1.56089e-06 
495.979 1.56128e-06 
496.51 1.56166e-06 
497.04 1.56205e-06 
497.57 1.56244e-06 
498.101 1.56282e-06 
498.631 1.56321e-06 
499.161 1.5636e-06 
499.691 1.56398e-06 
500.222 1.56437e-06 
500.752 1.56476e-06 
501.282 1.56515e-06 
501.812 1.56554e-06 
502.343 1.56593e-06 
502.873 1.56632e-06 
503.403 1.56671e-06 
503.934 1.5671e-06 
504.464 1.56749e-06 
504.994 1.56788e-06 
505.524 1.56827e-06 
506.055 1.56867e-06 
506.585 1.56906e-06 
507.115 1.56945e-06 
507.646 1.56985e-06 
508.176 1.57024e-06 
508.706 1.57064e-06 
509.236 1.57103e-06 
509.767 1.57143e-06 
510.297 1.57183e-06 
510.827 1.57222e-06 
511.357 1.57262e-06 
511.888 1.57302e-06 
512.418 1.57342e-06 
512.948 1.57382e-06 
513.479 1.57422e-06 
514.009 1.57462e-06 
514.539 1.57502e-06 
515.069 1.57542e-06 
515.6 1.57582e-06 
516.13 1.57623e-06 
516.66 1.57663e-06 
517.19 1.57703e-06 
517.721 1.57743e-06 
518.251 1.57784e-06 
518.781 1.57824e-06 
519.312 1.57865e-06 
519.842 1.57905e-06 
520.372 1.57946e-06 
520.902 1.57986e-06 
521.433 1.58027e-06 
521.963 1.58068e-06 
522.493 1.58108e-06 
523.023 1.58149e-06 
523.554 1.5819e-06 
524.084 1.58231e-06 
524.614 1.58272e-06 
525.145 1.58313e-06 
525.675 1.58353e-06 
526.205 1.58395e-06 
526.735 1.58436e-06 
527.266 1.58477e-06 
527.796 1.58518e-06 
528.326 1.58559e-06 
528.856 1.586e-06 
529.387 1.58642e-06 
529.917 1.58683e-06 
530.447 1.58724e-06 
530.978 1.58766e-06 
531.508 1.58807e-06 
532.038 1.58849e-06 
532.568 1.58891e-06 
533.099 1.58932e-06 
533.629 1.58974e-06 
534.159 1.59016e-06 
534.689 1.59058e-06 
535.22 1.59099e-06 
535.75 1.59141e-06 
536.28 1.59183e-06 
536.811 1.59225e-06 
537.341 1.59267e-06 
537.871 1.5931e-06 
538.401 1.59352e-06 
538.932 1.59394e-06 
539.462 1.59436e-06 
539.992 1.59479e-06 
540.522 1.59521e-06 
541.053 1.59563e-06 
541.583 1.59606e-06 
542.113 1.59648e-06 
542.644 1.59691e-06 
543.174 1.59733e-06 
543.704 1.59776e-06 
544.234 1.59819e-06 
544.765 1.59862e-06 
545.295 1.59904e-06 
545.825 1.59947e-06 
546.355 1.5999e-06 
546.886 1.60033e-06 
547.416 1.60076e-06 
547.946 1.60119e-06 
548.477 1.60163e-06 
549.007 1.60206e-06 
549.537 1.60249e-06 
550.067 1.60292e-06 
550.598 1.60336e-06 
551.128 1.60379e-06 
551.658 1.60423e-06 
552.188 1.60466e-06 
552.719 1.6051e-06 
553.249 1.60553e-06 
553.779 1.60597e-06 
554.31 1.60641e-06 
554.84 1.60685e-06 
555.37 1.60729e-06 
555.9 1.60772e-06 
556.431 1.60816e-06 
556.961 1.6086e-06 
557.491 1.60905e-06 
558.021 1.60949e-06 
558.552 1.60993e-06 
559.082 1.61037e-06 
559.612 1.61081e-06 
560.143 1.61126e-06 
560.673 1.6117e-06 
561.203 1.61215e-06 
561.733 1.61259e-06 
562.264 1.61304e-06 
562.794 1.61348e-06 
563.324 1.61393e-06 
563.854 1.61438e-06 
564.385 1.61482e-06 
564.915 1.61527e-06 
565.445 1.61572e-06 
565.976 1.61617e-06 
566.506 1.61662e-06 
567.036 1.61707e-06 
567.566 1.61752e-06 
568.097 1.61797e-06 
568.627 1.61843e-06 
569.157 1.61888e-06 
569.688 1.61933e-06 
570.218 1.61979e-06 
570.748 1.62024e-06 
571.278 1.6207e-06 
571.809 1.62116e-06 
572.339 1.62161e-06 
572.869 1.62207e-06 
573.399 1.62253e-06 
573.93 1.62299e-06 
574.46 1.62345e-06 
574.99 1.62391e-06 
575.521 1.62437e-06 
576.051 1.62483e-06 
576.581 1.62529e-06 
577.111 1.62575e-06 
577.642 1.62622e-06 
578.172 1.62668e-06 
578.702 1.62715e-06 
579.232 1.62761e-06 
579.763 1.62808e-06 
580.293 1.62854e-06 
580.823 1.62901e-06 
581.354 1.62948e-06 
581.884 1.62995e-06 
582.414 1.63042e-06 
582.944 1.63088e-06 
583.475 1.63135e-06 
584.005 1.63183e-06 
584.535 1.6323e-06 
585.065 1.63277e-06 
585.596 1.63324e-06 
586.126 1.63371e-06 
586.656 1.63419e-06 
587.187 1.63466e-06 
587.717 1.63514e-06 
588.247 1.63561e-06 
588.777 1.63609e-06 
589.308 1.63656e-06 
589.838 1.63704e-06 
590.368 1.63752e-06 
590.898 1.638e-06 
591.429 1.63848e-06 
591.959 1.63896e-06 
592.489 1.63944e-06 
593.02 1.63992e-06 
593.55 1.6404e-06 
594.08 1.64088e-06 
594.61 1.64137e-06 
595.141 1.64185e-06 
595.671 1.64234e-06 
596.201 1.64282e-06 
596.731 1.64331e-06 
597.262 1.64379e-06 
597.792 1.64428e-06 
598.322 1.64477e-06 
598.853 1.64526e-06 
599.383 1.64575e-06 
599.913 1.64624e-06 
600.443 1.64673e-06 
600.974 1.64722e-06 
601.504 1.64771e-06 
602.034 1.64821e-06 
602.564 1.6487e-06 
603.095 1.6492e-06 
603.625 1.64969e-06 
604.155 1.65019e-06 
604.686 1.65068e-06 
605.216 1.65118e-06 
605.746 1.65168e-06 
606.276 1.65218e-06 
606.807 1.65268e-06 
607.337 1.65318e-06 
607.867 1.65368e-06 
608.397 1.65419e-06 
608.928 1.65469e-06 
609.458 1.65519e-06 
609.988 1.6557e-06 
610.519 1.6562e-06 
611.049 1.65671e-06 
611.579 1.65721e-06 
612.109 1.65772e-06 
612.64 1.65823e-06 
613.17 1.65874e-06 
613.7 1.65925e-06 
614.23 1.65976e-06 
614.761 1.66027e-06 
615.291 1.66078e-06 
615.821 1.66129e-06 
616.352 1.66181e-06 
616.882 1.66232e-06 
617.412 1.66284e-06 
617.942 1.66335e-06 
618.473 1.66387e-06 
619.003 1.66438e-06 
619.533 1.6649e-06 
620.063 1.66542e-06 
620.594 1.66594e-06 
621.124 1.66646e-06 
621.654 1.66698e-06 
622.185 1.6675e-06 
622.715 1.66802e-06 
623.245 1.66855e-06 
623.775 1.66907e-06 
624.306 1.66959e-06 
624.836 1.67012e-06 
625.366 1.67064e-06 
625.896 1.67117e-06 
626.427 1.6717e-06 
626.957 1.67223e-06 
627.487 1.67276e-06 
628.018 1.67329e-06 
628.548 1.67382e-06 
629.078 1.67435e-06 
629.608 1.67488e-06 
630.139 1.67542e-06 
630.669 1.67595e-06 
631.199 1.67648e-06 
631.729 1.67702e-06 
632.26 1.67756e-06 
632.79 1.67809e-06 
633.32 1.67863e-06 
633.851 1.67917e-06 
634.381 1.67971e-06 
634.911 1.68025e-06 
635.441 1.6808e-06 
635.972 1.68134e-06 
636.502 1.68188e-06 
637.032 1.68243e-06 
637.562 1.68297e-06 
638.093 1.68352e-06 
638.623 1.68406e-06 
639.153 1.68461e-06 
639.684 1.68516e-06 
640.214 1.68571e-06 
640.744 1.68626e-06 
641.274 1.68681e-06 
641.805 1.68737e-06 
642.335 1.68792e-06 
642.865 1.68847e-06 
643.396 1.68903e-06 
643.926 1.68959e-06 
644.456 1.69014e-06 
644.986 1.6907e-06 
645.517 1.69126e-06 
646.047 1.69182e-06 
646.577 1.69238e-06 
647.107 1.69294e-06 
647.638 1.6935e-06 
648.168 1.69407e-06 
648.698 1.69463e-06 
649.229 1.6952e-06 
649.759 1.69576e-06 
650.289 1.69633e-06 
650.819 1.6969e-06 
651.35 1.69747e-06 
651.88 1.69804e-06 
652.41 1.69861e-06 
652.94 1.69918e-06 
653.471 1.69975e-06 
654.001 1.70033e-06 
654.531 1.7009e-06 
655.062 1.70148e-06 
655.592 1.70205e-06 
656.122 1.70263e-06 
656.652 1.70321e-06 
657.183 1.70379e-06 
657.713 1.70437e-06 
658.243 1.70495e-06 
658.773 1.70553e-06 
659.304 1.70611e-06 
659.834 1.7067e-06 
660.364 1.70728e-06 
660.895 1.70787e-06 
661.425 1.70845e-06 
661.955 1.70904e-06 
662.485 1.70963e-06 
663.016 1.71022e-06 
663.546 1.71081e-06 
664.076 1.7114e-06 
664.606 1.71199e-06 
665.137 1.71259e-06 
665.667 1.71318e-06 
666.197 1.71378e-06 
666.728 1.71437e-06 
667.258 1.71497e-06 
667.788 1.71557e-06 
668.318 1.71617e-06 
668.849 1.71677e-06 
669.379 1.71737e-06 
669.909 1.71797e-06 
670.439 1.71858e-06 
670.97 1.71918e-06 
671.5 1.71979e-06 
672.03 1.72039e-06 
672.561 1.721e-06 
673.091 1.72161e-06 
673.621 1.72222e-06 
674.151 1.72283e-06 
674.682 1.72345e-06 
675.212 1.72406e-06 
675.742 1.72468e-06 
676.272 1.72529e-06 
676.803 1.72591e-06 
677.333 1.72653e-06 
677.863 1.72715e-06 
678.394 1.72777e-06 
678.924 1.72839e-06 
679.454 1.72901e-06 
679.984 1.72964e-06 
680.515 1.73026e-06 
681.045 1.73089e-06 
681.575 1.73152e-06 
682.105 1.73215e-06 
682.636 1.73278e-06 
683.166 1.73341e-06 
683.696 1.73404e-06 
684.227 1.73467e-06 
684.757 1.73531e-06 
685.287 1.73595e-06 
685.817 1.73658e-06 
686.348 1.73722e-06 
686.878 1.73786e-06 
687.408 1.7385e-06 
687.938 1.73914e-06 
688.469 1.73978e-06 
688.999 1.74043e-06 
689.529 1.74107e-06 
690.06 1.74172e-06 
690.59 1.74236e-06 
691.12 1.74301e-06 
691.65 1.74366e-06 
692.181 1.74431e-06 
692.711 1.74496e-06 
693.241 1.74561e-06 
693.771 1.74627e-06 
694.302 1.74692e-06 
694.832 1.74758e-06 
695.362 1.74823e-06 
695.893 1.74889e-06 
696.423 1.74955e-06 
696.953 1.75021e-06 
697.483 1.75087e-06 
698.014 1.75154e-06 
698.544 1.7522e-06 
699.074 1.75287e-06 
699.604 1.75353e-06 
700.135 1.7542e-06 
700.665 1.75487e-06 
701.195 1.75554e-06 
701.726 1.75621e-06 
702.256 1.75688e-06 
702.786 1.75756e-06 
703.316 1.75823e-06 
703.847 1.75891e-06 
704.377 1.75959e-06 
704.907 1.76027e-06 
705.438 1.76095e-06 
705.968 1.76163e-06 
706.498 1.76232e-06 
707.028 1.763e-06 
707.559 1.76369e-06 
708.089 1.76438e-06 
708.619 1.76507e-06 
709.149 1.76576e-06 
709.68 1.76645e-06 
710.21 1.76715e-06 
710.74 1.76784e-06 
711.271 1.76854e-06 
711.801 1.76924e-06 
712.331 1.76994e-06 
712.861 1.77064e-06 
713.392 1.77135e-06 
713.922 1.77205e-06 
714.452 1.77276e-06 
714.982 1.77347e-06 
715.513 1.77417e-06 
716.043 1.77488e-06 
716.573 1.7756e-06 
717.104 1.77631e-06 
717.634 1.77702e-06 
718.164 1.77774e-06 
718.694 1.77846e-06 
719.225 1.77918e-06 
719.755 1.7799e-06 
720.285 1.78062e-06 
720.815 1.78134e-06 
721.346 1.78206e-06 
721.876 1.78279e-06 
722.406 1.78352e-06 
722.937 1.78424e-06 
723.467 1.78497e-06 
723.997 1.7857e-06 
724.527 1.78644e-06 
725.058 1.78717e-06 
725.588 1.7879e-06 
726.118 1.78864e-06 
726.648 1.78938e-06 
727.179 1.79012e-06 
727.709 1.79086e-06 
728.239 1.7916e-06 
728.77 1.79234e-06 
729.3 1.79309e-06 
729.83 1.79384e-06 
730.36 1.79459e-06 
730.891 1.79534e-06 
731.421 1.79609e-06 
731.951 1.79684e-06 
732.481 1.79759e-06 
733.012 1.79835e-06 
733.542 1.79911e-06 
734.072 1.79987e-06 
734.603 1.80063e-06 
735.133 1.80139e-06 
735.663 1.80216e-06 
736.193 1.80292e-06 
736.724 1.80369e-06 
737.254 1.80446e-06 
737.784 1.80523e-06 
738.314 1.80601e-06 
738.845 1.80678e-06 
739.375 1.80756e-06 
739.905 1.80834e-06 
740.436 1.80912e-06 
740.966 1.8099e-06 
741.496 1.81069e-06 
742.026 1.81147e-06 
742.557 1.81226e-06 
743.087 1.81305e-06 
743.617 1.81384e-06 
744.147 1.81464e-06 
744.678 1.81543e-06 
745.208 1.81623e-06 
745.738 1.81703e-06 
746.269 1.81783e-06 
746.799 1.81863e-06 
747.329 1.81943e-06 
747.859 1.82024e-06 
748.39 1.82105e-06 
748.92 1.82186e-06 
749.45 1.82267e-06 
749.98 1.82348e-06 
750.511 1.8243e-06 
751.041 1.82511e-06 
751.571 1.82593e-06 
752.102 1.82675e-06 
752.632 1.82757e-06 
753.162 1.8284e-06 
753.692 1.82922e-06 
754.223 1.83005e-06 
754.753 1.83088e-06 
755.283 1.83171e-06 
755.813 1.83254e-06 
756.344 1.83338e-06 
756.874 1.83421e-06 
757.404 1.83505e-06 
757.935 1.83589e-06 
758.465 1.83674e-06 
758.995 1.83758e-06 
759.525 1.83843e-06 
760.056 1.83927e-06 
760.586 1.84012e-06 
761.116 1.84098e-06 
761.646 1.84183e-06 
762.177 1.84269e-06 
762.707 1.84354e-06 
763.237 1.8444e-06 
763.768 1.84527e-06 
764.298 1.84613e-06 
764.828 1.847e-06 
765.358 1.84786e-06 
765.889 1.84873e-06 
766.419 1.84961e-06 
766.949 1.85048e-06 
767.479 1.85136e-06 
768.01 1.85223e-06 
768.54 1.85311e-06 
769.07 1.854e-06 
769.601 1.85488e-06 
770.131 1.85577e-06 
770.661 1.85666e-06 
771.191 1.85755e-06 
771.722 1.85844e-06 
772.252 1.85933e-06 
772.782 1.86023e-06 
773.312 1.86113e-06 
773.843 1.86203e-06 
774.373 1.86294e-06 
774.903 1.86384e-06 
775.434 1.86475e-06 
775.964 1.86566e-06 
776.494 1.86658e-06 
777.024 1.86749e-06 
777.555 1.86841e-06 
778.085 1.86933e-06 
778.615 1.87026e-06 
779.146 1.87118e-06 
779.676 1.87211e-06 
780.206 1.87304e-06 
780.736 1.87397e-06 
781.267 1.87491e-06 
781.797 1.87584e-06 
782.327 1.87679e-06 
782.857 1.87773e-06 
783.388 1.87867e-06 
783.918 1.87962e-06 
784.448 1.88057e-06 
784.979 1.88152e-06 
785.509 1.88248e-06 
786.039 1.88343e-06 
786.569 1.88439e-06 
787.1 1.88535e-06 
787.63 1.88632e-06 
788.16 1.88728e-06 
788.69 1.88825e-06 
789.221 1.88922e-06 
789.751 1.8902e-06 
790.281 1.89117e-06 
790.812 1.89215e-06 
791.342 1.89313e-06 
791.872 1.89411e-06 
792.402 1.8951e-06 
792.933 1.89608e-06 
793.463 1.89707e-06 
793.993 1.89806e-06 
794.523 1.89906e-06 
795.054 1.90005e-06 
795.584 1.90105e-06 
796.114 1.90205e-06 
796.645 1.90306e-06 
797.175 1.90406e-06 
797.705 1.90507e-06 
798.235 1.90608e-06 
798.766 1.9071e-06 
799.296 1.90811e-06 
799.826 1.90913e-06 
800.356 1.91015e-06 
800.887 1.91118e-06 
801.417 1.91221e-06 
801.947 1.91324e-06 
802.478 1.91427e-06 
803.008 1.91531e-06 
803.538 1.91635e-06 
804.068 1.91739e-06 
804.599 1.91843e-06 
805.129 1.91948e-06 
805.659 1.92053e-06 
806.189 1.92159e-06 
806.72 1.92265e-06 
807.25 1.92371e-06 
807.78 1.92477e-06 
808.311 1.92584e-06 
808.841 1.92691e-06 
809.371 1.92799e-06 
809.901 1.92906e-06 
810.432 1.93014e-06 
810.962 1.93123e-06 
811.492 1.93231e-06 
812.022 1.9334e-06 
812.553 1.9345e-06 
813.083 1.93559e-06 
813.613 1.93669e-06 
814.144 1.93779e-06 
814.674 1.9389e-06 
815.204 1.94e-06 
815.734 1.94111e-06 
816.265 1.94223e-06 
816.795 1.94334e-06 
817.325 1.94446e-06 
817.855 1.94558e-06 
818.386 1.94671e-06 
818.916 1.94783e-06 
819.446 1.94896e-06 
819.977 1.9501e-06 
820.507 1.95123e-06 
821.037 1.95237e-06 
821.567 1.95351e-06 
822.098 1.95466e-06 
822.628 1.9558e-06 
823.158 1.95696e-06 
823.688 1.95811e-06 
824.219 1.95927e-06 
824.749 1.96043e-06 
825.279 1.96159e-06 
825.81 1.96276e-06 
826.34 1.96393e-06 
826.87 1.9651e-06 
827.4 1.96627e-06 
827.931 1.96745e-06 
828.461 1.96864e-06 
828.991 1.96983e-06 
829.521 1.97102e-06 
830.052 1.97221e-06 
830.582 1.97341e-06 
831.112 1.97461e-06 
831.643 1.97581e-06 
832.173 1.97702e-06 
832.703 1.97823e-06 
833.233 1.97945e-06 
833.764 1.98067e-06 
834.294 1.98189e-06 
834.824 1.98312e-06 
835.354 1.98435e-06 
835.885 1.98558e-06 
836.415 1.98682e-06 
836.945 1.98806e-06 
837.476 1.98931e-06 
838.006 1.99056e-06 
838.536 1.99181e-06 
839.066 1.99307e-06 
839.597 1.99433e-06 
840.127 1.99559e-06 
840.657 1.99686e-06 
841.188 1.99814e-06 
841.718 1.99941e-06 
842.248 2.00069e-06 
842.778 2.00198e-06 
843.309 2.00327e-06 
843.839 2.00456e-06 
844.369 2.00586e-06 
844.899 2.00717e-06 
845.43 2.00847e-06 
845.96 2.00978e-06 
846.49 2.0111e-06 
847.021 2.01242e-06 
847.551 2.01374e-06 
848.081 2.01507e-06 
848.611 2.0164e-06 
849.142 2.01774e-06 
849.672 2.01908e-06 
850.202 2.02043e-06 
850.732 2.02178e-06 
851.263 2.02313e-06 
851.793 2.02449e-06 
852.323 2.02585e-06 
852.854 2.02722e-06 
853.384 2.02859e-06 
853.914 2.02997e-06 
854.444 2.03134e-06 
854.975 2.03273e-06 
855.505 2.03411e-06 
856.035 2.03551e-06 
856.565 2.0369e-06 
857.096 2.0383e-06 
857.626 2.0397e-06 
858.156 2.04111e-06 
858.687 2.04252e-06 
859.217 2.04394e-06 
859.747 2.04536e-06 
860.277 2.04678e-06 
860.808 2.04821e-06 
861.338 2.04965e-06 
861.868 2.05109e-06 
862.398 2.05253e-06 
862.929 2.05398e-06 
863.459 2.05543e-06 
863.989 2.05689e-06 
864.52 2.05835e-06 
865.05 2.05982e-06 
865.58 2.0613e-06 
866.11 2.06277e-06 
866.641 2.06426e-06 
867.171 2.06575e-06 
867.701 2.06724e-06 
868.231 2.06874e-06 
868.762 2.07024e-06 
869.292 2.07175e-06 
869.822 2.07326e-06 
870.353 2.07478e-06 
870.883 2.07631e-06 
871.413 2.07783e-06 
871.943 2.07937e-06 
872.474 2.0809e-06 
873.004 2.08245e-06 
873.534 2.08399e-06 
874.064 2.08555e-06 
874.595 2.0871e-06 
875.125 2.08866e-06 
875.655 2.09023e-06 
876.186 2.0918e-06 
876.716 2.09338e-06 
877.246 2.09496e-06 
877.776 2.09654e-06 
878.307 2.09813e-06 
878.837 2.09973e-06 
879.367 2.10133e-06 
879.897 2.10294e-06 
880.428 2.10455e-06 
880.958 2.10617e-06 
881.488 2.10779e-06 
882.019 2.10942e-06 
882.549 2.11105e-06 
883.079 2.11269e-06 
883.609 2.11434e-06 
884.14 2.11599e-06 
884.67 2.11765e-06 
885.2 2.11931e-06 
885.73 2.12098e-06 
886.261 2.12265e-06 
886.791 2.12433e-06 
887.321 2.12601e-06 
887.852 2.1277e-06 
888.382 2.1294e-06 
888.912 2.1311e-06 
889.442 2.1328e-06 
889.973 2.13451e-06 
890.503 2.13623e-06 
891.033 2.13795e-06 
891.563 2.13968e-06 
892.094 2.14141e-06 
892.624 2.14315e-06 
893.154 2.14489e-06 
893.685 2.14664e-06 
894.215 2.14839e-06 
894.745 2.15015e-06 
895.275 2.15192e-06 
895.806 2.15369e-06 
896.336 2.15547e-06 
896.866 2.15726e-06 
897.396 2.15905e-06 
897.927 2.16085e-06 
898.457 2.16265e-06 
898.987 2.16446e-06 
899.518 2.16628e-06 
900.048 2.1681e-06 
900.578 2.16993e-06 
901.108 2.17177e-06 
901.639 2.17361e-06 
902.169 2.17546e-06 
902.699 2.17732e-06 
903.229 2.17918e-06 
903.76 2.18104e-06 
904.29 2.18292e-06 
904.82 2.1848e-06 
905.351 2.18669e-06 
905.881 2.18858e-06 
906.411 2.19048e-06 
906.941 2.19239e-06 
907.472 2.1943e-06 
908.002 2.19622e-06 
908.532 2.19815e-06 
909.062 2.20009e-06 
