#energy geo_1 
600 3.49333e-06 
600.439 3.49477e-06 
600.879 3.49619e-06 
601.318 3.49761e-06 
601.758 3.49901e-06 
602.197 3.5004e-06 
602.637 3.50177e-06 
603.076 3.50312e-06 
603.516 3.50444e-06 
603.955 3.50574e-06 
604.395 3.50702e-06 
604.834 3.50827e-06 
605.273 3.50948e-06 
605.713 3.51067e-06 
606.152 3.51182e-06 
606.592 3.51295e-06 
607.031 3.51404e-06 
607.471 3.5151e-06 
607.91 3.51614e-06 
608.35 3.51715e-06 
608.789 3.51814e-06 
609.229 3.51911e-06 
609.668 3.52007e-06 
610.107 3.52101e-06 
610.547 3.52195e-06 
610.986 3.52288e-06 
611.426 3.52381e-06 
611.865 3.52475e-06 
612.305 3.5257e-06 
612.744 3.52666e-06 
613.184 3.52763e-06 
613.623 3.52862e-06 
614.062 3.52963e-06 
614.502 3.53065e-06 
614.941 3.53169e-06 
615.381 3.53276e-06 
615.82 3.53383e-06 
616.26 3.53492e-06 
616.699 3.53602e-06 
617.139 3.53712e-06 
617.578 3.53822e-06 
618.018 3.53931e-06 
618.457 3.5404e-06 
618.896 3.54146e-06 
619.336 3.5425e-06 
619.775 3.54351e-06 
620.215 3.54449e-06 
620.654 3.54542e-06 
621.094 3.54631e-06 
621.533 3.54715e-06 
621.973 3.54794e-06 
622.412 3.54868e-06 
622.852 3.54937e-06 
623.291 3.55002e-06 
623.73 3.55063e-06 
624.17 3.55121e-06 
624.609 3.55175e-06 
625.049 3.55229e-06 
625.488 3.55282e-06 
625.928 3.55335e-06 
626.367 3.55391e-06 
626.807 3.55449e-06 
627.246 3.55512e-06 
627.686 3.55581e-06 
628.125 3.55655e-06 
628.564 3.55738e-06 
629.004 3.55828e-06 
629.443 3.55926e-06 
629.883 3.56032e-06 
630.322 3.56147e-06 
630.762 3.56269e-06 
631.201 3.56399e-06 
631.641 3.56535e-06 
632.08 3.56676e-06 
632.52 3.5682e-06 
632.959 3.56967e-06 
633.398 3.57114e-06 
633.838 3.57261e-06 
634.277 3.57405e-06 
634.717 3.57545e-06 
635.156 3.5768e-06 
635.596 3.57808e-06 
636.035 3.57928e-06 
636.475 3.58041e-06 
636.914 3.58146e-06 
637.354 3.58243e-06 
637.793 3.58334e-06 
638.232 3.5842e-06 
638.672 3.58503e-06 
639.111 3.58587e-06 
639.551 3.58673e-06 
639.99 3.58765e-06 
640.43 3.58867e-06 
640.869 3.58983e-06 
641.309 3.59114e-06 
641.748 3.59266e-06 
642.188 3.59439e-06 
642.627 3.59637e-06 
643.066 3.5986e-06 
643.506 3.60111e-06 
643.945 3.6039e-06 
644.385 3.60696e-06 
644.824 3.6103e-06 
645.264 3.61389e-06 
645.703 3.61774e-06 
646.143 3.62181e-06 
646.582 3.62611e-06 
647.021 3.63061e-06 
647.461 3.63528e-06 
647.9 3.6401e-06 
648.34 3.64503e-06 
648.779 3.65004e-06 
649.219 3.65506e-06 
649.658 3.66001e-06 
650.098 3.66482e-06 
650.537 3.66938e-06 
650.977 3.67356e-06 
651.416 3.67721e-06 
651.855 3.68018e-06 
652.295 3.68229e-06 
652.734 3.68342e-06 
653.174 3.68342e-06 
653.613 3.68234e-06 
654.053 3.68029e-06 
654.492 3.6775e-06 
654.932 3.67428e-06 
655.371 3.67102e-06 
655.811 3.66812e-06 
656.25 3.66595e-06 
656.689 3.66485e-06 
657.129 3.66508e-06 
657.568 3.66687e-06 
658.008 3.67034e-06 
658.447 3.6756e-06 
658.887 3.68278e-06 
659.326 3.69194e-06 
659.766 3.70317e-06 
660.205 3.71635e-06 
660.645 3.73132e-06 
661.084 3.74785e-06 
661.523 3.76573e-06 
661.963 3.78482e-06 
662.402 3.80514e-06 
662.842 3.82681e-06 
663.281 3.84999e-06 
663.721 3.87454e-06 
664.16 3.89994e-06 
664.6 3.92483e-06 
665.039 3.94728e-06 
665.479 3.96511e-06 
665.918 3.9768e-06 
666.357 3.98143e-06 
666.797 3.97991e-06 
667.236 3.97359e-06 
667.676 3.96358e-06 
668.115 3.95025e-06 
668.555 3.93328e-06 
668.994 3.91268e-06 
669.434 3.88913e-06 
669.873 3.86415e-06 
670.312 3.83954e-06 
670.752 3.81673e-06 
671.191 3.79605e-06 
671.631 3.77741e-06 
672.07 3.76094e-06 
672.51 3.74694e-06 
672.949 3.73584e-06 
673.389 3.72763e-06 
673.828 3.72216e-06 
674.268 3.7195e-06 
674.707 3.71987e-06 
675.146 3.72374e-06 
675.586 3.7316e-06 
676.025 3.74392e-06 
676.465 3.76114e-06 
676.904 3.78439e-06 
677.344 3.81607e-06 
677.783 3.8606e-06 
678.223 3.92592e-06 
678.662 4.02652e-06 
679.102 4.18923e-06 
679.541 4.46829e-06 
679.98 4.98458e-06 
680.42 6.02358e-06 
680.859 8.11685e-06 
681.299 1.04831e-05 
681.738 9.26593e-06 
682.178 6.82135e-06 
682.617 5.37072e-06 
683.057 4.65137e-06 
683.496 4.2745e-06 
683.936 4.05888e-06 
684.375 3.92586e-06 
684.814 3.83875e-06 
685.254 3.779e-06 
685.693 3.73648e-06 
686.133 3.70534e-06 
686.572 3.682e-06 
687.012 3.66418e-06 
687.451 3.65037e-06 
687.891 3.63956e-06 
688.33 3.63102e-06 
688.77 3.62424e-06 
689.209 3.61885e-06 
689.648 3.61457e-06 
690.088 3.61118e-06 
690.527 3.60852e-06 
690.967 3.60646e-06 
691.406 3.60491e-06 
691.846 3.60379e-06 
692.285 3.60302e-06 
692.725 3.60256e-06 
693.164 3.60236e-06 
693.604 3.60239e-06 
694.043 3.60262e-06 
694.482 3.60302e-06 
694.922 3.60357e-06 
695.361 3.60425e-06 
695.801 3.60504e-06 
696.24 3.60594e-06 
696.68 3.60693e-06 
697.119 3.60801e-06 
697.559 3.60915e-06 
697.998 3.61037e-06 
698.438 3.61165e-06 
698.877 3.61298e-06 
699.316 3.61437e-06 
699.756 3.61581e-06 
700.195 3.61729e-06 
700.635 3.61882e-06 
701.074 3.6204e-06 
701.514 3.62201e-06 
701.953 3.62366e-06 
702.393 3.62535e-06 
702.832 3.62707e-06 
703.271 3.62882e-06 
703.711 3.6306e-06 
704.15 3.6324e-06 
704.59 3.63422e-06 
705.029 3.63606e-06 
705.469 3.63792e-06 
705.908 3.63978e-06 
706.348 3.64166e-06 
706.787 3.64354e-06 
707.227 3.64542e-06 
707.666 3.6473e-06 
708.105 3.64919e-06 
708.545 3.65109e-06 
708.984 3.653e-06 
709.424 3.65493e-06 
709.863 3.65687e-06 
710.303 3.65882e-06 
710.742 3.66077e-06 
711.182 3.66272e-06 
711.621 3.66467e-06 
712.061 3.66663e-06 
712.5 3.66858e-06 
712.939 3.67053e-06 
713.379 3.67248e-06 
713.818 3.67442e-06 
714.258 3.67636e-06 
714.697 3.67829e-06 
715.137 3.68022e-06 
715.576 3.68215e-06 
716.016 3.68406e-06 
716.455 3.68598e-06 
716.895 3.68788e-06 
717.334 3.68978e-06 
717.773 3.69168e-06 
718.213 3.69357e-06 
718.652 3.69546e-06 
719.092 3.69735e-06 
719.531 3.69923e-06 
719.971 3.70112e-06 
720.41 3.70301e-06 
720.85 3.7049e-06 
721.289 3.70679e-06 
721.729 3.70869e-06 
722.168 3.71059e-06 
722.607 3.7125e-06 
723.047 3.71441e-06 
723.486 3.71633e-06 
723.926 3.71825e-06 
724.365 3.72018e-06 
724.805 3.7221e-06 
725.244 3.72402e-06 
725.684 3.72595e-06 
726.123 3.72786e-06 
726.562 3.72975e-06 
727.002 3.73163e-06 
727.441 3.73349e-06 
727.881 3.73532e-06 
728.32 3.73711e-06 
728.76 3.73887e-06 
729.199 3.74057e-06 
729.639 3.74223e-06 
730.078 3.74382e-06 
730.518 3.74536e-06 
730.957 3.74683e-06 
731.396 3.74822e-06 
731.836 3.74955e-06 
732.275 3.75079e-06 
732.715 3.75196e-06 
733.154 3.75306e-06 
733.594 3.75409e-06 
734.033 3.75504e-06 
734.473 3.75593e-06 
734.912 3.75676e-06 
735.352 3.75754e-06 
735.791 3.75827e-06 
736.23 3.75897e-06 
736.67 3.75965e-06 
737.109 3.7603e-06 
737.549 3.76095e-06 
737.988 3.7616e-06 
738.428 3.76227e-06 
738.867 3.76295e-06 
739.307 3.76367e-06 
739.746 3.76441e-06 
740.186 3.76519e-06 
740.625 3.76601e-06 
741.064 3.76687e-06 
741.504 3.76777e-06 
741.943 3.7687e-06 
742.383 3.76966e-06 
742.822 3.77064e-06 
743.262 3.77164e-06 
743.701 3.77263e-06 
744.141 3.77361e-06 
744.58 3.77457e-06 
745.02 3.77549e-06 
745.459 3.77635e-06 
745.898 3.77714e-06 
746.338 3.77785e-06 
746.777 3.77846e-06 
747.217 3.77897e-06 
747.656 3.77937e-06 
748.096 3.77964e-06 
748.535 3.77979e-06 
748.975 3.77982e-06 
749.414 3.77974e-06 
749.854 3.77955e-06 
750.293 3.77927e-06 
750.732 3.77892e-06 
751.172 3.77852e-06 
751.611 3.77808e-06 
752.051 3.77765e-06 
752.49 3.77724e-06 
752.93 3.7769e-06 
753.369 3.77665e-06 
753.809 3.77651e-06 
754.248 3.7765e-06 
754.688 3.77667e-06 
755.127 3.77701e-06 
755.566 3.77756e-06 
756.006 3.7783e-06 
756.445 3.77923e-06 
756.885 3.78036e-06 
757.324 3.78167e-06 
757.764 3.78314e-06 
758.203 3.78476e-06 
758.643 3.78647e-06 
759.082 3.78826e-06 
759.521 3.79009e-06 
759.961 3.79191e-06 
760.4 3.79369e-06 
760.84 3.79539e-06 
761.279 3.79698e-06 
761.719 3.79842e-06 
762.158 3.79968e-06 
762.598 3.80076e-06 
763.037 3.80164e-06 
763.477 3.80233e-06 
763.916 3.80285e-06 
764.355 3.80322e-06 
764.795 3.80349e-06 
765.234 3.80371e-06 
765.674 3.80396e-06 
766.113 3.80431e-06 
766.553 3.80485e-06 
766.992 3.80564e-06 
767.432 3.80679e-06 
767.871 3.80837e-06 
768.311 3.81045e-06 
768.75 3.81308e-06 
769.189 3.81632e-06 
769.629 3.82021e-06 
770.068 3.82475e-06 
770.508 3.82998e-06 
770.947 3.83587e-06 
771.387 3.84241e-06 
771.826 3.84957e-06 
772.266 3.85731e-06 
772.705 3.86561e-06 
773.145 3.87443e-06 
773.584 3.8837e-06 
774.023 3.89337e-06 
774.463 3.90336e-06 
774.902 3.91358e-06 
775.342 3.92393e-06 
775.781 3.93423e-06 
776.221 3.9443e-06 
776.66 3.95392e-06 
777.1 3.9628e-06 
777.539 3.97064e-06 
777.979 3.97705e-06 
778.418 3.98164e-06 
778.857 3.98402e-06 
779.297 3.98387e-06 
779.736 3.98101e-06 
780.176 3.9756e-06 
780.615 3.96802e-06 
781.055 3.95889e-06 
781.494 3.94908e-06 
781.934 3.93952e-06 
782.373 3.93117e-06 
782.812 3.92492e-06 
783.252 3.92149e-06 
783.691 3.9215e-06 
784.131 3.92541e-06 
784.57 3.93348e-06 
785.01 3.94602e-06 
785.449 3.96326e-06 
785.889 3.98541e-06 
786.328 4.0125e-06 
786.768 4.04416e-06 
787.207 4.07994e-06 
787.646 4.11931e-06 
788.086 4.16181e-06 
788.525 4.20723e-06 
788.965 4.25571e-06 
789.404 4.30763e-06 
789.844 4.36312e-06 
790.283 4.42157e-06 
790.723 4.48098e-06 
791.162 4.53749e-06 
791.602 4.58605e-06 
792.041 4.62195e-06 
792.48 4.64188e-06 
792.92 4.64529e-06 
793.359 4.63501e-06 
793.799 4.61415e-06 
794.238 4.58483e-06 
794.678 4.54719e-06 
795.117 4.5006e-06 
795.557 4.44568e-06 
795.996 4.38485e-06 
796.436 4.3222e-06 
796.875 4.26186e-06 
797.314 4.20632e-06 
797.754 4.15584e-06 
798.193 4.11038e-06 
798.633 4.07039e-06 
799.072 4.03683e-06 
799.512 4.01032e-06 
799.951 3.99063e-06 
800.391 3.9776e-06 
800.83 3.9715e-06 
801.27 3.97311e-06 
801.709 3.98358e-06 
802.148 4.00408e-06 
802.588 4.03564e-06 
803.027 4.07977e-06 
803.467 4.14024e-06 
803.906 4.22439e-06 
804.346 4.34559e-06 
804.785 4.52806e-06 
805.225 4.81603e-06 
805.664 5.29417e-06 
806.104 6.14115e-06 
806.543 7.76882e-06 
806.982 1.11128e-05 
807.422 1.69931e-05 
807.861 1.96032e-05 
808.301 1.49526e-05 
808.74 9.94448e-06 
809.18 7.17696e-06 
809.619 5.79219e-06 
810.059 5.04579e-06 
810.498 4.60702e-06 
810.938 4.3299e-06 
811.377 4.14472e-06 
811.816 4.01534e-06 
812.256 3.92168e-06 
812.695 3.85188e-06 
813.135 3.79861e-06 
813.574 3.75717e-06 
814.014 3.72439e-06 
814.453 3.6981e-06 
814.893 3.67677e-06 
815.332 3.65931e-06 
815.771 3.64489e-06 
816.211 3.63291e-06 
816.65 3.6229e-06 
817.09 3.6145e-06 
817.529 3.60745e-06 
817.969 3.6015e-06 
818.408 3.59649e-06 
818.848 3.59228e-06 
819.287 3.58874e-06 
819.727 3.58578e-06 
820.166 3.58332e-06 
820.605 3.5813e-06 
821.045 3.57965e-06 
821.484 3.57834e-06 
821.924 3.57732e-06 
822.363 3.57657e-06 
822.803 3.57604e-06 
823.242 3.57571e-06 
823.682 3.57557e-06 
824.121 3.57559e-06 
824.561 3.57576e-06 
825 3.57607e-06 
825.439 3.57649e-06 
825.879 3.57702e-06 
826.318 3.57766e-06 
826.758 3.57838e-06 
827.197 3.57919e-06 
827.637 3.58008e-06 
828.076 3.58103e-06 
828.516 3.58206e-06 
828.955 3.58314e-06 
829.395 3.58428e-06 
829.834 3.58547e-06 
830.273 3.58671e-06 
830.713 3.588e-06 
831.152 3.58933e-06 
831.592 3.59071e-06 
832.031 3.59212e-06 
832.471 3.59357e-06 
832.91 3.59505e-06 
833.35 3.59657e-06 
833.789 3.59811e-06 
834.229 3.59969e-06 
834.668 3.6013e-06 
835.107 3.60293e-06 
835.547 3.60459e-06 
835.986 3.60627e-06 
836.426 3.60797e-06 
836.865 3.6097e-06 
837.305 3.61145e-06 
837.744 3.61322e-06 
838.184 3.615e-06 
838.623 3.61681e-06 
839.062 3.61863e-06 
839.502 3.62046e-06 
839.941 3.62231e-06 
840.381 3.62418e-06 
840.82 3.62605e-06 
841.26 3.62794e-06 
841.699 3.62985e-06 
842.139 3.63176e-06 
842.578 3.63368e-06 
843.018 3.63562e-06 
843.457 3.63756e-06 
843.896 3.63951e-06 
844.336 3.64147e-06 
844.775 3.64344e-06 
845.215 3.64543e-06 
845.654 3.64741e-06 
846.094 3.64941e-06 
846.533 3.65141e-06 
846.973 3.65343e-06 
847.412 3.65545e-06 
847.852 3.65748e-06 
848.291 3.65952e-06 
848.73 3.66157e-06 
849.17 3.66362e-06 
849.609 3.66569e-06 
850.049 3.66776e-06 
850.488 3.66985e-06 
850.928 3.67194e-06 
851.367 3.67404e-06 
851.807 3.67615e-06 
852.246 3.67827e-06 
852.686 3.68039e-06 
853.125 3.68253e-06 
853.564 3.68467e-06 
854.004 3.68682e-06 
854.443 3.68898e-06 
854.883 3.69115e-06 
855.322 3.69332e-06 
855.762 3.69551e-06 
856.201 3.6977e-06 
856.641 3.6999e-06 
857.08 3.7021e-06 
857.52 3.70431e-06 
857.959 3.70653e-06 
858.398 3.70875e-06 
858.838 3.71098e-06 
859.277 3.71322e-06 
859.717 3.71546e-06 
860.156 3.71771e-06 
860.596 3.71997e-06 
861.035 3.72223e-06 
861.475 3.7245e-06 
861.914 3.72677e-06 
862.354 3.72905e-06 
862.793 3.73134e-06 
863.232 3.73364e-06 
863.672 3.73594e-06 
864.111 3.73824e-06 
864.551 3.74056e-06 
864.99 3.74288e-06 
865.43 3.7452e-06 
865.869 3.74753e-06 
866.309 3.74987e-06 
866.748 3.75221e-06 
867.188 3.75456e-06 
867.627 3.75691e-06 
868.066 3.75927e-06 
868.506 3.76163e-06 
868.945 3.764e-06 
869.385 3.76637e-06 
869.824 3.76875e-06 
870.264 3.77113e-06 
870.703 3.77352e-06 
871.143 3.77591e-06 
871.582 3.77831e-06 
872.021 3.78072e-06 
872.461 3.78313e-06 
872.9 3.78555e-06 
873.34 3.78797e-06 
873.779 3.7904e-06 
874.219 3.79283e-06 
874.658 3.79528e-06 
875.098 3.79773e-06 
875.537 3.80018e-06 
875.977 3.80265e-06 
876.416 3.80512e-06 
876.855 3.8076e-06 
877.295 3.81009e-06 
877.734 3.81258e-06 
878.174 3.81508e-06 
878.613 3.81759e-06 
879.053 3.82011e-06 
879.492 3.82263e-06 
879.932 3.82516e-06 
880.371 3.8277e-06 
880.811 3.83024e-06 
881.25 3.83279e-06 
881.689 3.83534e-06 
882.129 3.83789e-06 
882.568 3.84046e-06 
883.008 3.84302e-06 
883.447 3.84559e-06 
883.887 3.84817e-06 
884.326 3.85075e-06 
884.766 3.85333e-06 
885.205 3.85592e-06 
885.645 3.85851e-06 
886.084 3.86112e-06 
886.523 3.86372e-06 
886.963 3.86634e-06 
887.402 3.86897e-06 
887.842 3.8716e-06 
888.281 3.87425e-06 
888.721 3.87691e-06 
889.16 3.87958e-06 
889.6 3.88227e-06 
890.039 3.88497e-06 
890.479 3.88768e-06 
890.918 3.89041e-06 
891.357 3.89316e-06 
891.797 3.89592e-06 
892.236 3.89869e-06 
892.676 3.90148e-06 
893.115 3.90428e-06 
893.555 3.9071e-06 
893.994 3.90993e-06 
894.434 3.91277e-06 
894.873 3.91562e-06 
895.312 3.91848e-06 
895.752 3.92135e-06 
896.191 3.92423e-06 
896.631 3.92711e-06 
897.07 3.93001e-06 
897.51 3.9329e-06 
897.949 3.93581e-06 
898.389 3.93872e-06 
898.828 3.94164e-06 
899.268 3.94457e-06 
899.707 3.9475e-06 
900.146 3.95046e-06 
900.586 3.95342e-06 
901.025 3.9564e-06 
901.465 3.95939e-06 
901.904 3.9624e-06 
902.344 3.96543e-06 
902.783 3.96849e-06 
903.223 3.97157e-06 
903.662 3.97467e-06 
904.102 3.9778e-06 
904.541 3.98096e-06 
904.98 3.98414e-06 
905.42 3.98735e-06 
905.859 3.99058e-06 
906.299 3.99383e-06 
906.738 3.99711e-06 
907.178 4.00041e-06 
907.617 4.00373e-06 
908.057 4.00706e-06 
908.496 4.01041e-06 
908.936 4.01376e-06 
909.375 4.01713e-06 
909.814 4.02051e-06 
910.254 4.02389e-06 
910.693 4.02728e-06 
911.133 4.03068e-06 
911.572 4.03408e-06 
912.012 4.03749e-06 
912.451 4.04091e-06 
912.891 4.04434e-06 
913.33 4.04778e-06 
913.77 4.05124e-06 
914.209 4.05473e-06 
914.648 4.05823e-06 
915.088 4.06176e-06 
915.527 4.06532e-06 
915.967 4.06891e-06 
916.406 4.07253e-06 
916.846 4.07618e-06 
917.285 4.07986e-06 
917.725 4.08358e-06 
918.164 4.08732e-06 
918.604 4.09109e-06 
919.043 4.09488e-06 
919.482 4.09869e-06 
919.922 4.10251e-06 
920.361 4.10634e-06 
920.801 4.11018e-06 
921.24 4.11401e-06 
921.68 4.11784e-06 
922.119 4.12166e-06 
922.559 4.12547e-06 
922.998 4.12928e-06 
923.438 4.13311e-06 
923.877 4.13696e-06 
924.316 4.14082e-06 
924.756 4.14469e-06 
925.195 4.14858e-06 
925.635 4.15247e-06 
926.074 4.15637e-06 
926.514 4.16028e-06 
926.953 4.1642e-06 
927.393 4.16813e-06 
927.832 4.17206e-06 
928.271 4.17601e-06 
928.711 4.17998e-06 
929.15 4.18395e-06 
929.59 4.18793e-06 
930.029 4.19193e-06 
930.469 4.19593e-06 
930.908 4.19994e-06 
931.348 4.20395e-06 
931.787 4.20797e-06 
932.227 4.21198e-06 
932.666 4.216e-06 
933.105 4.22002e-06 
933.545 4.22404e-06 
933.984 4.22806e-06 
934.424 4.23207e-06 
934.863 4.23609e-06 
935.303 4.2401e-06 
935.742 4.24412e-06 
936.182 4.24814e-06 
936.621 4.25216e-06 
937.061 4.2562e-06 
937.5 4.26024e-06 
937.939 4.2643e-06 
938.379 4.26837e-06 
938.818 4.27246e-06 
939.258 4.27657e-06 
939.697 4.28068e-06 
940.137 4.28481e-06 
940.576 4.28895e-06 
941.016 4.29309e-06 
941.455 4.29722e-06 
941.895 4.30133e-06 
942.334 4.30541e-06 
942.773 4.30945e-06 
943.213 4.31343e-06 
943.652 4.31734e-06 
944.092 4.32116e-06 
944.531 4.32487e-06 
944.971 4.32847e-06 
945.41 4.33195e-06 
945.85 4.33529e-06 
946.289 4.33847e-06 
946.729 4.34151e-06 
947.168 4.34442e-06 
947.607 4.34722e-06 
948.047 4.34991e-06 
948.486 4.35248e-06 
948.926 4.35493e-06 
949.365 4.35727e-06 
949.805 4.35949e-06 
950.244 4.36162e-06 
950.684 4.36365e-06 
951.123 4.36562e-06 
951.562 4.36753e-06 
952.002 4.36939e-06 
952.441 4.37122e-06 
952.881 4.37303e-06 
953.32 4.37484e-06 
953.76 4.37667e-06 
954.199 4.37851e-06 
954.639 4.38039e-06 
955.078 4.38229e-06 
955.518 4.38424e-06 
955.957 4.38622e-06 
956.396 4.38825e-06 
956.836 4.39031e-06 
957.275 4.39239e-06 
957.715 4.39449e-06 
958.154 4.39658e-06 
958.594 4.39866e-06 
959.033 4.4007e-06 
959.473 4.40269e-06 
959.912 4.4046e-06 
960.352 4.40641e-06 
960.791 4.40809e-06 
961.23 4.40963e-06 
961.67 4.41101e-06 
962.109 4.4122e-06 
962.549 4.4132e-06 
962.988 4.41399e-06 
963.428 4.41454e-06 
963.867 4.41488e-06 
964.307 4.41501e-06 
964.746 4.41494e-06 
965.186 4.41468e-06 
965.625 4.41424e-06 
966.064 4.41365e-06 
966.504 4.41293e-06 
966.943 4.41213e-06 
967.383 4.41128e-06 
967.822 4.41041e-06 
968.262 4.40955e-06 
968.701 4.40873e-06 
969.141 4.408e-06 
969.58 4.40737e-06 
970.02 4.40686e-06 
970.459 4.40648e-06 
970.898 4.40622e-06 
971.338 4.40609e-06 
971.777 4.40609e-06 
972.217 4.40619e-06 
972.656 4.40637e-06 
973.096 4.4066e-06 
973.535 4.40682e-06 
973.975 4.40701e-06 
974.414 4.40712e-06 
974.854 4.40713e-06 
975.293 4.40697e-06 
975.732 4.40662e-06 
976.172 4.40603e-06 
976.611 4.40517e-06 
977.051 4.40405e-06 
977.49 4.40264e-06 
977.93 4.40098e-06 
978.369 4.39907e-06 
978.809 4.39695e-06 
979.248 4.3947e-06 
979.688 4.39238e-06 
980.127 4.39011e-06 
980.566 4.38799e-06 
981.006 4.38613e-06 
981.445 4.38465e-06 
981.885 4.38366e-06 
982.324 4.38327e-06 
982.764 4.3836e-06 
983.203 4.38471e-06 
983.643 4.38668e-06 
984.082 4.38952e-06 
984.521 4.39326e-06 
984.961 4.3979e-06 
985.4 4.40341e-06 
985.84 4.40977e-06 
986.279 4.41689e-06 
986.719 4.42473e-06 
987.158 4.43322e-06 
987.598 4.44228e-06 
988.037 4.45189e-06 
988.477 4.46196e-06 
988.916 4.47242e-06 
989.355 4.48319e-06 
989.795 4.49415e-06 
990.234 4.50515e-06 
990.674 4.51599e-06 
991.113 4.52643e-06 
991.553 4.53615e-06 
991.992 4.54473e-06 
992.432 4.5517e-06 
992.871 4.55648e-06 
993.311 4.55848e-06 
993.75 4.55714e-06 
994.189 4.55196e-06 
994.629 4.54279e-06 
995.068 4.52998e-06 
995.508 4.51421e-06 
995.947 4.49662e-06 
996.387 4.47863e-06 
996.826 4.46176e-06 
997.266 4.44748e-06 
997.705 4.43715e-06 
998.145 4.43183e-06 
998.584 4.43243e-06 
999.023 4.43954e-06 
999.463 4.4535e-06 
999.902 4.47471e-06 
1000.34 4.50345e-06 
1000.78 4.53997e-06 
1001.22 4.58412e-06 
1001.66 4.63526e-06 
1002.1 4.69259e-06 
1002.54 4.75526e-06 
1002.98 4.82265e-06 
1003.42 4.89466e-06 
1003.86 4.97173e-06 
1004.3 5.05464e-06 
1004.74 5.14355e-06 
1005.18 5.23724e-06 
1005.62 5.33191e-06 
1006.05 5.42089e-06 
1006.49 5.49594e-06 
1006.93 5.54984e-06 
1007.37 5.57802e-06 
1007.81 5.58105e-06 
1008.25 5.56391e-06 
1008.69 5.5317e-06 
1009.13 5.48727e-06 
1009.57 5.43042e-06 
1010.01 5.36044e-06 
1010.45 5.27882e-06 
1010.89 5.19023e-06 
1011.33 5.10146e-06 
1011.77 5.01892e-06 
1012.21 4.94576e-06 
1012.65 4.88205e-06 
1013.09 4.8277e-06 
1013.53 4.7834e-06 
1013.96 4.75048e-06 
1014.4 4.72928e-06 
1014.84 4.71894e-06 
1015.28 4.71882e-06 
1015.72 4.72888e-06 
1016.16 4.74982e-06 
1016.6 4.78273e-06 
1017.04 4.82861e-06 
1017.48 4.88834e-06 
1017.92 4.96445e-06 
1018.36 5.064e-06 
1018.8 5.20171e-06 
1019.24 5.40457e-06 
1019.68 5.72152e-06 
1020.12 6.24207e-06 
1020.56 7.14049e-06 
1021 8.79166e-06 
1021.44 1.20651e-05 
1021.88 1.87178e-05 
