#energy geo_1 
400 1.58968e-06 
400.53 1.59042e-06 
401.061 1.59116e-06 
401.591 1.5919e-06 
402.121 1.59264e-06 
402.651 1.59339e-06 
403.182 1.59414e-06 
403.712 1.59488e-06 
404.242 1.59564e-06 
404.772 1.59639e-06 
405.303 1.59715e-06 
405.833 1.59791e-06 
406.363 1.59867e-06 
406.894 1.59943e-06 
407.424 1.6002e-06 
407.954 1.60096e-06 
408.484 1.60173e-06 
409.015 1.60251e-06 
409.545 1.60328e-06 
410.075 1.60406e-06 
410.605 1.60484e-06 
411.136 1.60562e-06 
411.666 1.6064e-06 
412.196 1.60719e-06 
412.727 1.60798e-06 
413.257 1.60877e-06 
413.787 1.60957e-06 
414.317 1.61036e-06 
414.848 1.61116e-06 
415.378 1.61197e-06 
415.908 1.61277e-06 
416.438 1.61358e-06 
416.969 1.61439e-06 
417.499 1.6152e-06 
418.029 1.61601e-06 
418.56 1.61683e-06 
419.09 1.61765e-06 
419.62 1.61848e-06 
420.15 1.6193e-06 
420.681 1.62013e-06 
421.211 1.62096e-06 
421.741 1.6218e-06 
422.271 1.62263e-06 
422.802 1.62347e-06 
423.332 1.62432e-06 
423.862 1.62516e-06 
424.393 1.62601e-06 
424.923 1.62686e-06 
425.453 1.62772e-06 
425.983 1.62857e-06 
426.514 1.62943e-06 
427.044 1.6303e-06 
427.574 1.63116e-06 
428.104 1.63203e-06 
428.635 1.6329e-06 
429.165 1.63378e-06 
429.695 1.63466e-06 
430.226 1.63554e-06 
430.756 1.63642e-06 
431.286 1.63731e-06 
431.816 1.6382e-06 
432.347 1.63909e-06 
432.877 1.63999e-06 
433.407 1.64089e-06 
433.938 1.64179e-06 
434.468 1.64269e-06 
434.998 1.6436e-06 
435.528 1.64451e-06 
436.059 1.64542e-06 
436.589 1.64634e-06 
437.119 1.64726e-06 
437.649 1.64818e-06 
438.18 1.6491e-06 
438.71 1.65003e-06 
439.24 1.65096e-06 
439.771 1.65189e-06 
440.301 1.65283e-06 
440.831 1.65377e-06 
441.361 1.6547e-06 
441.892 1.65565e-06 
442.422 1.65659e-06 
442.952 1.65754e-06 
443.482 1.65849e-06 
444.013 1.65944e-06 
444.543 1.66039e-06 
445.073 1.66134e-06 
445.604 1.6623e-06 
446.134 1.66326e-06 
446.664 1.66422e-06 
447.194 1.66518e-06 
447.725 1.66614e-06 
448.255 1.6671e-06 
448.785 1.66807e-06 
449.315 1.66903e-06 
449.846 1.67e-06 
450.376 1.67097e-06 
450.906 1.67194e-06 
451.437 1.67291e-06 
451.967 1.67388e-06 
452.497 1.67485e-06 
453.027 1.67582e-06 
453.558 1.67679e-06 
454.088 1.67777e-06 
454.618 1.67874e-06 
455.148 1.67972e-06 
455.679 1.6807e-06 
456.209 1.68168e-06 
456.739 1.68266e-06 
457.27 1.68364e-06 
457.8 1.68463e-06 
458.33 1.68562e-06 
458.86 1.68662e-06 
459.391 1.68762e-06 
459.921 1.68863e-06 
460.451 1.68965e-06 
460.981 1.69068e-06 
461.512 1.69172e-06 
462.042 1.69278e-06 
462.572 1.69385e-06 
463.103 1.69495e-06 
463.633 1.69607e-06 
464.163 1.69722e-06 
464.693 1.69841e-06 
465.224 1.69964e-06 
465.754 1.70093e-06 
466.284 1.70229e-06 
466.814 1.70372e-06 
467.345 1.70525e-06 
467.875 1.7069e-06 
468.405 1.70869e-06 
468.936 1.71066e-06 
469.466 1.71286e-06 
469.996 1.71533e-06 
470.526 1.71814e-06 
471.057 1.72139e-06 
471.587 1.7252e-06 
472.117 1.7297e-06 
472.647 1.73507e-06 
473.178 1.74154e-06 
473.708 1.74931e-06 
474.238 1.75856e-06 
474.769 1.76927e-06 
475.299 1.78099e-06 
475.829 1.79252e-06 
476.359 1.80186e-06 
476.89 1.80673e-06 
477.42 1.80582e-06 
477.95 1.79972e-06 
478.48 1.79048e-06 
479.011 1.78032e-06 
479.541 1.7708e-06 
480.071 1.76262e-06 
480.602 1.75597e-06 
481.132 1.75074e-06 
481.662 1.74672e-06 
482.192 1.7437e-06 
482.723 1.7415e-06 
483.253 1.73996e-06 
483.783 1.73898e-06 
484.313 1.73847e-06 
484.844 1.73836e-06 
485.374 1.73861e-06 
485.904 1.73921e-06 
486.435 1.74014e-06 
486.965 1.74141e-06 
487.495 1.74305e-06 
488.025 1.74509e-06 
488.556 1.7476e-06 
489.086 1.75065e-06 
489.616 1.75435e-06 
490.146 1.75885e-06 
490.677 1.76434e-06 
491.207 1.77106e-06 
491.737 1.77933e-06 
492.268 1.78952e-06 
492.798 1.80209e-06 
493.328 1.81747e-06 
493.858 1.83596e-06 
494.389 1.85736e-06 
494.919 1.88043e-06 
495.449 1.9023e-06 
495.979 1.91852e-06 
496.51 1.9246e-06 
497.04 1.91866e-06 
497.57 1.90278e-06 
498.101 1.88149e-06 
498.631 1.85917e-06 
499.161 1.83859e-06 
499.691 1.82094e-06 
500.222 1.8064e-06 
500.752 1.79469e-06 
501.282 1.78536e-06 
501.812 1.77799e-06 
502.343 1.7722e-06 
502.873 1.76771e-06 
503.403 1.76427e-06 
503.934 1.76173e-06 
504.464 1.75996e-06 
504.994 1.75889e-06 
505.524 1.75846e-06 
506.055 1.75868e-06 
506.585 1.75954e-06 
507.115 1.76112e-06 
507.646 1.76347e-06 
508.176 1.76674e-06 
508.706 1.77109e-06 
509.236 1.77675e-06 
509.767 1.78402e-06 
510.297 1.79331e-06 
510.827 1.80513e-06 
511.357 1.82014e-06 
511.888 1.83914e-06 
512.418 1.86303e-06 
512.948 1.89265e-06 
513.479 1.92844e-06 
514.009 1.96961e-06 
514.539 2.01303e-06 
515.069 2.0521e-06 
515.6 2.07747e-06 
516.13 2.08088e-06 
516.66 2.06035e-06 
517.19 2.02157e-06 
517.721 1.97396e-06 
518.251 1.92567e-06 
518.781 1.88148e-06 
519.312 1.84321e-06 
519.842 1.81095e-06 
520.372 1.784e-06 
520.902 1.76145e-06 
521.433 1.74246e-06 
521.963 1.72632e-06 
522.493 1.71243e-06 
523.023 1.70037e-06 
523.554 1.68981e-06 
524.084 1.68053e-06 
524.614 1.67237e-06 
525.145 1.66525e-06 
525.675 1.65917e-06 
526.205 1.65421e-06 
526.735 1.65051e-06 
527.266 1.64834e-06 
527.796 1.64812e-06 
528.326 1.65052e-06 
528.856 1.65652e-06 
529.387 1.66773e-06 
529.917 1.68674e-06 
530.447 1.71796e-06 
530.978 1.76938e-06 
531.508 1.85654e-06 
532.038 2.01253e-06 
532.568 2.31644e-06 
533.099 2.981e-06 
533.629 4.56175e-06 
534.159 6.87239e-06 
534.689 5.71654e-06 
535.22 3.64762e-06 
535.75 2.57156e-06 
536.28 2.09235e-06 
536.811 1.8534e-06 
537.341 1.71838e-06 
537.871 1.63408e-06 
538.401 1.57711e-06 
538.932 1.53606e-06 
539.462 1.5049e-06 
539.992 1.48017e-06 
540.522 1.4598e-06 
541.053 1.44253e-06 
541.583 1.42754e-06 
542.113 1.41431e-06 
542.644 1.40252e-06 
543.174 1.39197e-06 
543.704 1.38259e-06 
544.234 1.37439e-06 
544.765 1.36746e-06 
545.295 1.36201e-06 
545.825 1.35836e-06 
546.355 1.35694e-06 
546.886 1.35843e-06 
547.416 1.36382e-06 
547.946 1.37453e-06 
548.477 1.3927e-06 
549.007 1.42169e-06 
549.537 1.46696e-06 
550.067 1.53773e-06 
550.598 1.65072e-06 
551.128 1.83851e-06 
551.658 2.17081e-06 
552.188 2.81515e-06 
552.719 4.22404e-06 
553.249 7.55702e-06 
553.779 1.2086e-05 
554.31 9.52047e-06 
554.84 5.42514e-06 
555.37 3.30289e-06 
555.9 2.3617e-06 
556.431 1.89621e-06 
556.961 1.63731e-06 
557.491 1.4797e-06 
558.021 1.377e-06 
558.552 1.30648e-06 
559.082 1.25603e-06 
559.612 1.21871e-06 
560.143 1.19034e-06 
560.673 1.16829e-06 
561.203 1.15082e-06 
561.733 1.13675e-06 
562.264 1.12527e-06 
562.794 1.11577e-06 
563.324 1.10784e-06 
563.854 1.10116e-06 
564.385 1.09547e-06 
564.915 1.09061e-06 
565.445 1.08642e-06 
565.976 1.0828e-06 
566.506 1.07964e-06 
567.036 1.07688e-06 
567.566 1.07446e-06 
568.097 1.07233e-06 
568.627 1.07045e-06 
569.157 1.06879e-06 
569.688 1.06731e-06 
570.218 1.066e-06 
570.748 1.06484e-06 
571.278 1.06381e-06 
571.809 1.06289e-06 
572.339 1.06207e-06 
572.869 1.06135e-06 
573.399 1.06071e-06 
573.93 1.06014e-06 
574.46 1.05963e-06 
574.99 1.05919e-06 
575.521 1.05881e-06 
576.051 1.05847e-06 
576.581 1.05818e-06 
577.111 1.05793e-06 
577.642 1.05771e-06 
578.172 1.05754e-06 
578.702 1.05739e-06 
579.232 1.05728e-06 
579.763 1.05719e-06 
580.293 1.05713e-06 
580.823 1.0571e-06 
581.354 1.05708e-06 
581.884 1.05709e-06 
582.414 1.05711e-06 
582.944 1.05715e-06 
583.475 1.05721e-06 
584.005 1.05729e-06 
584.535 1.05738e-06 
585.065 1.05749e-06 
585.596 1.0576e-06 
586.126 1.05773e-06 
586.656 1.05788e-06 
587.187 1.05803e-06 
587.717 1.05819e-06 
588.247 1.05836e-06 
588.777 1.05855e-06 
589.308 1.05874e-06 
589.838 1.05894e-06 
590.368 1.05915e-06 
590.898 1.05936e-06 
591.429 1.05958e-06 
591.959 1.05981e-06 
592.489 1.06005e-06 
593.02 1.06029e-06 
593.55 1.06054e-06 
594.08 1.0608e-06 
594.61 1.06106e-06 
595.141 1.06132e-06 
595.671 1.0616e-06 
596.201 1.06187e-06 
596.731 1.06215e-06 
597.262 1.06244e-06 
597.792 1.06273e-06 
598.322 1.06302e-06 
598.853 1.06332e-06 
599.383 1.06362e-06 
599.913 1.06393e-06 
600.443 1.06424e-06 
600.974 1.06455e-06 
601.504 1.06487e-06 
602.034 1.06519e-06 
602.564 1.06551e-06 
603.095 1.06584e-06 
603.625 1.06617e-06 
604.155 1.0665e-06 
604.686 1.06683e-06 
605.216 1.06717e-06 
605.746 1.06751e-06 
606.276 1.06786e-06 
606.807 1.0682e-06 
607.337 1.06855e-06 
607.867 1.0689e-06 
608.397 1.06926e-06 
608.928 1.06961e-06 
609.458 1.06997e-06 
609.988 1.07033e-06 
610.519 1.0707e-06 
611.049 1.07106e-06 
611.579 1.07143e-06 
612.109 1.0718e-06 
612.64 1.07217e-06 
613.17 1.07254e-06 
613.7 1.07292e-06 
614.23 1.0733e-06 
614.761 1.07368e-06 
615.291 1.07406e-06 
615.821 1.07444e-06 
616.352 1.07483e-06 
616.882 1.07521e-06 
617.412 1.0756e-06 
617.942 1.07599e-06 
618.473 1.07638e-06 
619.003 1.07678e-06 
619.533 1.07717e-06 
620.063 1.07757e-06 
620.594 1.07797e-06 
621.124 1.07837e-06 
621.654 1.07877e-06 
622.185 1.07917e-06 
622.715 1.07958e-06 
623.245 1.07998e-06 
623.775 1.08039e-06 
624.306 1.0808e-06 
624.836 1.08121e-06 
625.366 1.08162e-06 
625.896 1.08204e-06 
626.427 1.08245e-06 
626.957 1.08287e-06 
627.487 1.08329e-06 
628.018 1.08371e-06 
628.548 1.08413e-06 
629.078 1.08455e-06 
629.608 1.08497e-06 
630.139 1.0854e-06 
630.669 1.08582e-06 
631.199 1.08625e-06 
631.729 1.08668e-06 
632.26 1.08711e-06 
632.79 1.08754e-06 
633.32 1.08797e-06 
633.851 1.08841e-06 
634.381 1.08884e-06 
634.911 1.08928e-06 
635.441 1.08972e-06 
635.972 1.09015e-06 
636.502 1.09059e-06 
637.032 1.09104e-06 
637.562 1.09148e-06 
638.093 1.09192e-06 
638.623 1.09237e-06 
639.153 1.09282e-06 
639.684 1.09326e-06 
640.214 1.09371e-06 
640.744 1.09416e-06 
641.274 1.09461e-06 
641.805 1.09507e-06 
642.335 1.09552e-06 
642.865 1.09598e-06 
643.396 1.09643e-06 
643.926 1.09689e-06 
644.456 1.09735e-06 
644.986 1.09781e-06 
645.517 1.09827e-06 
646.047 1.09873e-06 
646.577 1.0992e-06 
647.107 1.09966e-06 
647.638 1.10013e-06 
648.168 1.10059e-06 
648.698 1.10106e-06 
649.229 1.10153e-06 
649.759 1.102e-06 
650.289 1.10248e-06 
650.819 1.10295e-06 
651.35 1.10342e-06 
651.88 1.1039e-06 
652.41 1.10438e-06 
652.94 1.10486e-06 
653.471 1.10534e-06 
654.001 1.10582e-06 
654.531 1.1063e-06 
655.062 1.10678e-06 
655.592 1.10727e-06 
656.122 1.10775e-06 
656.652 1.10824e-06 
657.183 1.10873e-06 
657.713 1.10922e-06 
658.243 1.10971e-06 
658.773 1.1102e-06 
659.304 1.11069e-06 
659.834 1.11119e-06 
660.364 1.11168e-06 
660.895 1.11218e-06 
661.425 1.11268e-06 
661.955 1.11318e-06 
662.485 1.11368e-06 
663.016 1.11418e-06 
663.546 1.11468e-06 
664.076 1.11519e-06 
664.606 1.11569e-06 
665.137 1.1162e-06 
665.667 1.11671e-06 
666.197 1.11722e-06 
666.728 1.11773e-06 
667.258 1.11824e-06 
667.788 1.11875e-06 
668.318 1.11927e-06 
668.849 1.11978e-06 
669.379 1.1203e-06 
669.909 1.12082e-06 
670.439 1.12134e-06 
670.97 1.12186e-06 
671.5 1.12238e-06 
672.03 1.12291e-06 
672.561 1.12343e-06 
673.091 1.12396e-06 
673.621 1.12449e-06 
674.151 1.12502e-06 
674.682 1.12555e-06 
675.212 1.12608e-06 
675.742 1.12662e-06 
676.272 1.12715e-06 
676.803 1.12769e-06 
677.333 1.12823e-06 
677.863 1.12876e-06 
678.394 1.12931e-06 
678.924 1.12985e-06 
679.454 1.13039e-06 
679.984 1.13094e-06 
680.515 1.13148e-06 
681.045 1.13203e-06 
681.575 1.13258e-06 
682.105 1.13313e-06 
682.636 1.13369e-06 
683.166 1.13424e-06 
683.696 1.1348e-06 
684.227 1.13535e-06 
684.757 1.13591e-06 
685.287 1.13647e-06 
685.817 1.13703e-06 
686.348 1.1376e-06 
686.878 1.13816e-06 
687.408 1.13873e-06 
687.938 1.1393e-06 
688.469 1.13987e-06 
688.999 1.14044e-06 
689.529 1.14101e-06 
690.06 1.14159e-06 
690.59 1.14216e-06 
691.12 1.14274e-06 
691.65 1.14332e-06 
692.181 1.1439e-06 
692.711 1.14449e-06 
693.241 1.14507e-06 
693.771 1.14566e-06 
694.302 1.14625e-06 
694.832 1.14684e-06 
695.362 1.14743e-06 
695.893 1.14802e-06 
696.423 1.14862e-06 
696.953 1.14922e-06 
697.483 1.14982e-06 
698.014 1.15042e-06 
698.544 1.15102e-06 
699.074 1.15163e-06 
699.604 1.15223e-06 
700.135 1.15284e-06 
700.665 1.15345e-06 
701.195 1.15407e-06 
701.726 1.15468e-06 
702.256 1.1553e-06 
702.786 1.15592e-06 
703.316 1.15654e-06 
703.847 1.15716e-06 
704.377 1.15779e-06 
704.907 1.15841e-06 
705.438 1.15904e-06 
705.968 1.15967e-06 
706.498 1.16031e-06 
707.028 1.16094e-06 
707.559 1.16158e-06 
708.089 1.16222e-06 
708.619 1.16286e-06 
709.149 1.16351e-06 
709.68 1.16415e-06 
710.21 1.1648e-06 
710.74 1.16545e-06 
711.271 1.16611e-06 
711.801 1.16676e-06 
712.331 1.16742e-06 
712.861 1.16808e-06 
713.392 1.16874e-06 
713.922 1.16941e-06 
714.452 1.17007e-06 
714.982 1.17074e-06 
715.513 1.17141e-06 
716.043 1.17209e-06 
716.573 1.17276e-06 
717.104 1.17344e-06 
717.634 1.17412e-06 
718.164 1.1748e-06 
718.694 1.17549e-06 
719.225 1.17617e-06 
719.755 1.17686e-06 
720.285 1.17755e-06 
720.815 1.17824e-06 
721.346 1.17893e-06 
721.876 1.17963e-06 
722.406 1.18033e-06 
722.937 1.18102e-06 
723.467 1.18172e-06 
723.997 1.18243e-06 
724.527 1.18313e-06 
725.058 1.18383e-06 
725.588 1.18453e-06 
726.118 1.18524e-06 
726.648 1.18594e-06 
727.179 1.18665e-06 
727.709 1.18736e-06 
728.239 1.18806e-06 
728.77 1.18877e-06 
729.3 1.18947e-06 
729.83 1.19017e-06 
730.36 1.19088e-06 
730.891 1.19158e-06 
731.421 1.19228e-06 
731.951 1.19297e-06 
732.481 1.19367e-06 
733.012 1.19436e-06 
733.542 1.19505e-06 
734.072 1.19573e-06 
734.603 1.19641e-06 
735.133 1.19709e-06 
735.663 1.19776e-06 
736.193 1.19843e-06 
736.724 1.19908e-06 
737.254 1.19974e-06 
737.784 1.20038e-06 
738.314 1.20102e-06 
738.845 1.20165e-06 
739.375 1.20227e-06 
739.905 1.20288e-06 
740.436 1.20348e-06 
740.966 1.20407e-06 
741.496 1.20465e-06 
742.026 1.20522e-06 
742.557 1.20577e-06 
743.087 1.20632e-06 
743.617 1.20685e-06 
744.147 1.20737e-06 
744.678 1.20787e-06 
745.208 1.20837e-06 
745.738 1.20885e-06 
746.269 1.20932e-06 
746.799 1.20977e-06 
747.329 1.21022e-06 
747.859 1.21065e-06 
748.39 1.21108e-06 
748.92 1.21149e-06 
749.45 1.2119e-06 
749.98 1.21231e-06 
750.511 1.21272e-06 
751.041 1.21312e-06 
751.571 1.21354e-06 
752.102 1.21397e-06 
752.632 1.21441e-06 
753.162 1.21488e-06 
753.692 1.21538e-06 
754.223 1.21593e-06 
754.753 1.21653e-06 
755.283 1.2172e-06 
755.813 1.21796e-06 
756.344 1.21883e-06 
756.874 1.21982e-06 
757.404 1.22098e-06 
757.935 1.22233e-06 
758.465 1.22391e-06 
758.995 1.22579e-06 
759.525 1.22802e-06 
760.056 1.23068e-06 
760.586 1.23386e-06 
761.116 1.23769e-06 
761.646 1.24231e-06 
762.177 1.24792e-06 
762.707 1.25476e-06 
763.237 1.26313e-06 
763.768 1.27343e-06 
764.298 1.28617e-06 
764.828 1.30199e-06 
765.358 1.3217e-06 
765.889 1.34628e-06 
766.419 1.3768e-06 
766.949 1.41429e-06 
767.479 1.45921e-06 
768.01 1.51053e-06 
768.54 1.56437e-06 
769.07 1.61283e-06 
769.601 1.64498e-06 
770.131 1.65134e-06 
770.661 1.62968e-06 
771.191 1.58652e-06 
771.722 1.53276e-06 
772.252 1.47806e-06 
772.782 1.42824e-06 
773.312 1.3856e-06 
773.843 1.35029e-06 
774.373 1.32152e-06 
774.903 1.29822e-06 
775.434 1.27936e-06 
775.964 1.26405e-06 
776.494 1.2516e-06 
777.024 1.24143e-06 
777.555 1.23313e-06 
778.085 1.22636e-06 
778.615 1.22088e-06 
779.146 1.21651e-06 
779.676 1.21312e-06 
780.206 1.21061e-06 
780.736 1.20895e-06 
781.267 1.20811e-06 
781.797 1.20812e-06 
782.327 1.20904e-06 
782.857 1.21094e-06 
783.388 1.21399e-06 
783.918 1.21837e-06 
784.448 1.22435e-06 
784.979 1.23229e-06 
785.509 1.24262e-06 
786.039 1.25587e-06 
786.569 1.27263e-06 
787.1 1.29339e-06 
787.63 1.31828e-06 
788.16 1.34651e-06 
788.69 1.37564e-06 
789.221 1.40121e-06 
789.751 1.41771e-06 
790.281 1.42129e-06 
790.812 1.4124e-06 
791.342 1.39556e-06 
791.872 1.37675e-06 
792.402 1.36088e-06 
792.933 1.3509e-06 
793.463 1.34823e-06 
793.993 1.35334e-06 
794.523 1.36599e-06 
795.054 1.3849e-06 
795.584 1.40712e-06 
796.114 1.42739e-06 
796.645 1.43893e-06 
797.175 1.43617e-06 
797.705 1.41802e-06 
798.235 1.38847e-06 
798.766 1.3538e-06 
799.296 1.31942e-06 
799.826 1.28846e-06 
800.356 1.26206e-06 
800.887 1.24021e-06 
801.417 1.22236e-06 
801.947 1.20786e-06 
802.478 1.19608e-06 
803.008 1.18648e-06 
803.538 1.17865e-06 
804.068 1.17223e-06 
804.599 1.16697e-06 
805.129 1.16268e-06 
805.659 1.15919e-06 
806.189 1.1564e-06 
806.72 1.15421e-06 
807.25 1.15258e-06 
807.78 1.15145e-06 
808.311 1.15083e-06 
808.841 1.1507e-06 
809.371 1.15109e-06 
809.901 1.15206e-06 
810.432 1.15366e-06 
810.962 1.15601e-06 
811.492 1.15926e-06 
812.022 1.16358e-06 
812.553 1.16921e-06 
813.083 1.17645e-06 
813.613 1.18561e-06 
814.144 1.19692e-06 
814.674 1.2104e-06 
815.204 1.22548e-06 
815.734 1.24062e-06 
816.265 1.25311e-06 
816.795 1.25972e-06 
817.325 1.25831e-06 
817.855 1.24921e-06 
818.386 1.23496e-06 
818.916 1.21876e-06 
819.446 1.20304e-06 
819.977 1.18908e-06 
820.507 1.17727e-06 
821.037 1.16752e-06 
821.567 1.15955e-06 
822.098 1.15306e-06 
822.628 1.14773e-06 
823.158 1.14335e-06 
823.688 1.13971e-06 
824.219 1.13667e-06 
824.749 1.1341e-06 
825.279 1.13193e-06 
825.81 1.13008e-06 
826.34 1.12851e-06 
826.87 1.12717e-06 
827.4 1.12604e-06 
827.931 1.1251e-06 
828.461 1.12434e-06 
828.991 1.12377e-06 
829.521 1.12338e-06 
830.052 1.12318e-06 
830.582 1.12319e-06 
831.112 1.12344e-06 
831.643 1.12396e-06 
832.173 1.12479e-06 
832.703 1.12597e-06 
833.233 1.12759e-06 
833.764 1.1297e-06 
834.294 1.13243e-06 
834.824 1.13588e-06 
835.354 1.1402e-06 
835.885 1.1456e-06 
836.415 1.15231e-06 
836.945 1.16062e-06 
837.476 1.17093e-06 
838.006 1.18372e-06 
838.536 1.19962e-06 
839.066 1.21943e-06 
839.597 1.24417e-06 
840.127 1.27516e-06 
840.657 1.31397e-06 
841.188 1.36246e-06 
841.718 1.42255e-06 
842.248 1.49561e-06 
842.778 1.5812e-06 
843.309 1.67499e-06 
843.839 1.76621e-06 
844.369 1.83736e-06 
844.899 1.86939e-06 
845.43 1.85182e-06 
845.96 1.78975e-06 
846.49 1.70026e-06 
847.021 1.60233e-06 
847.551 1.50938e-06 
848.081 1.42794e-06 
848.611 1.35965e-06 
849.142 1.30366e-06 
849.672 1.25819e-06 
850.202 1.22135e-06 
850.732 1.19145e-06 
851.263 1.16711e-06 
851.793 1.14724e-06 
852.323 1.13096e-06 
852.854 1.11765e-06 
853.384 1.10678e-06 
853.914 1.098e-06 
854.444 1.09103e-06 
854.975 1.08568e-06 
855.505 1.08182e-06 
856.035 1.0794e-06 
856.565 1.0784e-06 
857.096 1.0789e-06 
857.626 1.08102e-06 
858.156 1.08494e-06 
858.687 1.09095e-06 
859.217 1.09946e-06 
859.747 1.11098e-06 
860.277 1.12618e-06 
860.808 1.14591e-06 
861.338 1.17112e-06 
861.868 1.20272e-06 
862.398 1.24124e-06 
862.929 1.28598e-06 
863.459 1.33387e-06 
863.989 1.37829e-06 
864.52 1.40957e-06 
865.05 1.41858e-06 
865.58 1.40202e-06 
866.11 1.36467e-06 
866.641 1.31614e-06 
867.171 1.26564e-06 
867.701 1.21904e-06 
868.231 1.17884e-06 
868.762 1.14542e-06 
869.292 1.11812e-06 
869.822 1.09597e-06 
870.353 1.07801e-06 
870.883 1.06339e-06 
871.413 1.05145e-06 
871.943 1.04163e-06 
872.474 1.03352e-06 
873.004 1.02677e-06 
873.534 1.02113e-06 
874.064 1.01639e-06 
874.595 1.0124e-06 
875.125 1.00903e-06 
875.655 1.00618e-06 
876.186 1.00376e-06 
876.716 1.0017e-06 
877.246 9.99959e-07 
877.776 9.98482e-07 
878.307 9.97232e-07 
878.837 9.96178e-07 
879.367 9.95295e-07 
879.897 9.94558e-07 
880.428 9.93949e-07 
880.958 9.93451e-07 
881.488 9.9305e-07 
882.019 9.92731e-07 
882.549 9.92485e-07 
883.079 9.92302e-07 
883.609 9.92172e-07 
884.14 9.92086e-07 
884.67 9.9204e-07 
885.2 9.92025e-07 
885.73 9.92034e-07 
886.261 9.92063e-07 
886.791 9.92106e-07 
887.321 9.92159e-07 
887.852 9.92216e-07 
888.382 9.92273e-07 
888.912 9.92327e-07 
889.442 9.92372e-07 
889.973 9.92406e-07 
890.503 9.92425e-07 
891.033 9.92425e-07 
891.563 9.92403e-07 
892.094 9.92357e-07 
892.624 9.92283e-07 
893.154 9.9218e-07 
893.685 9.92044e-07 
894.215 9.91874e-07 
894.745 9.91669e-07 
895.275 9.91428e-07 
895.806 9.91149e-07 
896.336 9.90834e-07 
896.866 9.90481e-07 
897.396 9.90094e-07 
897.927 9.89672e-07 
898.457 9.89219e-07 
898.987 9.8874e-07 
899.518 9.8824e-07 
900.048 9.87726e-07 
900.578 9.87206e-07 
901.108 9.8669e-07 
901.639 9.86192e-07 
902.169 9.85727e-07 
902.699 9.85312e-07 
903.229 9.84974e-07 
903.76 9.84735e-07 
904.29 9.84629e-07 
904.82 9.84695e-07 
905.351 9.84978e-07 
905.881 9.85533e-07 
906.411 9.86425e-07 
906.941 9.87733e-07 
907.472 9.8955e-07 
908.002 9.91993e-07 
908.532 9.95198e-07 
909.062 9.99336e-07 
