#energy geo_1 
400 4.01492e-06 
400.53 4.01353e-06 
401.061 4.01214e-06 
401.591 4.01074e-06 
402.121 4.00933e-06 
402.651 4.00791e-06 
403.182 4.00649e-06 
403.712 4.00506e-06 
404.242 4.00362e-06 
404.772 4.00218e-06 
405.303 4.00074e-06 
405.833 3.9993e-06 
406.363 3.99786e-06 
406.894 3.99642e-06 
407.424 3.99499e-06 
407.954 3.99357e-06 
408.484 3.99215e-06 
409.015 3.99074e-06 
409.545 3.98931e-06 
410.075 3.98784e-06 
410.605 3.98631e-06 
411.136 3.98472e-06 
411.666 3.98309e-06 
412.196 3.98144e-06 
412.727 3.97982e-06 
413.257 3.97826e-06 
413.787 3.97683e-06 
414.317 3.97566e-06 
414.848 3.97518e-06 
415.378 3.97622e-06 
415.908 3.97622e-06 
416.438 3.97156e-06 
416.969 3.96793e-06 
417.499 3.96544e-06 
418.029 3.96341e-06 
418.56 3.96157e-06 
419.09 3.95981e-06 
419.62 3.95808e-06 
420.15 3.95634e-06 
420.681 3.95456e-06 
421.211 3.95274e-06 
421.741 3.95089e-06 
422.271 3.94901e-06 
422.802 3.94712e-06 
423.332 3.94523e-06 
423.862 3.94334e-06 
424.393 3.94144e-06 
424.923 3.93954e-06 
425.453 3.93764e-06 
425.983 3.93572e-06 
426.514 3.9338e-06 
427.044 3.93186e-06 
427.574 3.92991e-06 
428.104 3.92795e-06 
428.635 3.92597e-06 
429.165 3.92398e-06 
429.695 3.92197e-06 
430.226 3.91996e-06 
430.756 3.91792e-06 
431.286 3.91588e-06 
431.816 3.91383e-06 
432.347 3.91176e-06 
432.877 3.90968e-06 
433.407 3.9076e-06 
433.938 3.90551e-06 
434.468 3.90343e-06 
434.998 3.90136e-06 
435.528 3.8993e-06 
436.059 3.89728e-06 
436.589 3.89532e-06 
437.119 3.89344e-06 
437.649 3.89172e-06 
438.18 3.89024e-06 
438.71 3.88921e-06 
439.24 3.88901e-06 
439.771 3.89051e-06 
440.301 3.89595e-06 
440.831 3.91158e-06 
441.361 3.94737e-06 
441.892 3.9544e-06 
442.422 3.9135e-06 
442.952 3.88899e-06 
443.482 3.87727e-06 
444.013 3.87065e-06 
444.543 3.86609e-06 
445.073 3.86245e-06 
445.604 3.85925e-06 
446.134 3.85631e-06 
446.664 3.85352e-06 
447.194 3.85085e-06 
447.725 3.84826e-06 
448.255 3.84572e-06 
448.785 3.84323e-06 
449.315 3.84076e-06 
449.846 3.83831e-06 
450.376 3.83587e-06 
450.906 3.83344e-06 
451.437 3.831e-06 
451.967 3.82855e-06 
452.497 3.82608e-06 
453.027 3.82358e-06 
453.558 3.82103e-06 
454.088 3.81845e-06 
454.618 3.81586e-06 
455.148 3.81327e-06 
455.679 3.81069e-06 
456.209 3.80813e-06 
456.739 3.80557e-06 
457.27 3.80301e-06 
457.8 3.80044e-06 
458.33 3.79789e-06 
458.86 3.79541e-06 
459.391 3.79307e-06 
459.921 3.79094e-06 
460.451 3.78915e-06 
460.981 3.7879e-06 
461.512 3.78754e-06 
462.042 3.78873e-06 
462.572 3.79291e-06 
463.103 3.80352e-06 
463.633 3.82989e-06 
464.163 3.89631e-06 
464.693 3.99259e-06 
465.224 3.93123e-06 
465.754 3.84153e-06 
466.284 3.79801e-06 
466.814 3.77772e-06 
467.345 3.76674e-06 
467.875 3.7599e-06 
468.405 3.75516e-06 
468.936 3.75162e-06 
469.466 3.74886e-06 
469.996 3.74666e-06 
470.526 3.74493e-06 
471.057 3.74362e-06 
471.587 3.74277e-06 
472.117 3.74242e-06 
472.647 3.74265e-06 
473.178 3.74357e-06 
473.708 3.7453e-06 
474.238 3.74795e-06 
474.769 3.75148e-06 
475.299 3.75563e-06 
475.829 3.75971e-06 
476.359 3.76251e-06 
476.89 3.76271e-06 
477.42 3.75955e-06 
477.95 3.75341e-06 
478.48 3.74558e-06 
479.011 3.73755e-06 
479.541 3.73065e-06 
480.071 3.72633e-06 
480.602 3.72287e-06 
481.132 3.71424e-06 
481.662 3.70649e-06 
482.192 3.70081e-06 
482.723 3.69638e-06 
483.253 3.69309e-06 
483.783 3.6917e-06 
484.313 3.69245e-06 
484.844 3.68764e-06 
485.374 3.68064e-06 
485.904 3.67583e-06 
486.435 3.67242e-06 
486.965 3.66972e-06 
487.495 3.66747e-06 
488.025 3.6656e-06 
488.556 3.66408e-06 
489.086 3.66296e-06 
489.616 3.66228e-06 
490.146 3.6621e-06 
490.677 3.66252e-06 
491.207 3.66363e-06 
491.737 3.66556e-06 
492.268 3.66851e-06 
492.798 3.67273e-06 
493.328 3.67851e-06 
493.858 3.68608e-06 
494.389 3.69534e-06 
494.919 3.70561e-06 
495.449 3.71521e-06 
495.979 3.72154e-06 
496.51 3.72198e-06 
497.04 3.71543e-06 
497.57 3.7031e-06 
498.101 3.68763e-06 
498.631 3.67158e-06 
499.161 3.65656e-06 
499.691 3.64326e-06 
500.222 3.6318e-06 
500.752 3.622e-06 
501.282 3.61363e-06 
501.812 3.60642e-06 
502.343 3.60017e-06 
502.873 3.5947e-06 
503.403 3.58989e-06 
503.934 3.58561e-06 
504.464 3.58179e-06 
504.994 3.57835e-06 
505.524 3.57525e-06 
506.055 3.5725e-06 
506.585 3.57011e-06 
507.115 3.56816e-06 
507.646 3.56671e-06 
508.176 3.56586e-06 
508.706 3.5657e-06 
509.236 3.56639e-06 
509.767 3.56811e-06 
510.297 3.57109e-06 
510.827 3.57567e-06 
511.357 3.58222e-06 
511.888 3.59125e-06 
512.418 3.60329e-06 
512.948 3.61884e-06 
513.479 3.63817e-06 
514.009 3.66077e-06 
514.539 3.68474e-06 
515.069 3.70611e-06 
515.6 3.7192e-06 
516.13 3.71904e-06 
516.66 3.70442e-06 
517.19 3.67878e-06 
517.721 3.64783e-06 
518.251 3.61649e-06 
518.781 3.58766e-06 
519.312 3.56243e-06 
519.842 3.54088e-06 
520.372 3.52259e-06 
520.902 3.50702e-06 
521.433 3.49366e-06 
521.963 3.48205e-06 
522.493 3.47182e-06 
523.023 3.46268e-06 
523.554 3.45437e-06 
524.084 3.44667e-06 
524.614 3.43943e-06 
525.145 3.43255e-06 
525.675 3.42599e-06 
526.205 3.41974e-06 
526.735 3.41381e-06 
527.266 3.40821e-06 
527.796 3.40297e-06 
528.326 3.39812e-06 
528.856 3.39373e-06 
529.387 3.3899e-06 
529.917 3.38683e-06 
530.447 3.38483e-06 
530.978 3.38455e-06 
531.508 3.38737e-06 
532.038 3.39632e-06 
532.568 3.41863e-06 
533.099 3.47365e-06 
533.629 3.61182e-06 
534.159 3.81639e-06 
534.689 3.70723e-06 
535.22 3.51563e-06 
535.75 3.41415e-06 
536.28 3.36682e-06 
536.811 3.34129e-06 
537.341 3.32518e-06 
537.871 3.31367e-06 
538.401 3.30462e-06 
538.932 3.29699e-06 
539.462 3.29024e-06 
539.992 3.28405e-06 
540.522 3.27824e-06 
541.053 3.27269e-06 
541.583 3.26736e-06 
542.113 3.26221e-06 
542.644 3.25721e-06 
543.174 3.25238e-06 
543.704 3.24779e-06 
544.234 3.24374e-06 
544.765 3.24112e-06 
545.295 3.2423e-06 
545.825 3.24732e-06 
546.355 3.23831e-06 
546.886 3.22452e-06 
547.416 3.21541e-06 
547.946 3.20971e-06 
548.477 3.20607e-06 
549.007 3.20429e-06 
549.537 3.20481e-06 
550.067 3.20873e-06 
550.598 3.21815e-06 
551.128 3.23723e-06 
551.658 3.27494e-06 
552.188 3.35278e-06 
552.719 3.52888e-06 
553.249 3.95212e-06 
553.779 4.52952e-06 
554.31 4.19842e-06 
554.84 3.67215e-06 
555.37 3.39946e-06 
555.9 3.2785e-06 
556.431 3.21871e-06 
556.961 3.18552e-06 
557.491 3.16539e-06 
558.021 3.15235e-06 
558.552 3.14348e-06 
559.082 3.13721e-06 
559.612 3.13265e-06 
560.143 3.12926e-06 
560.673 3.12669e-06 
561.203 3.12472e-06 
561.733 3.1232e-06 
562.264 3.12202e-06 
562.794 3.1211e-06 
563.324 3.12039e-06 
563.854 3.11984e-06 
564.385 3.11943e-06 
564.915 3.11912e-06 
565.445 3.11891e-06 
565.976 3.11876e-06 
566.506 3.11869e-06 
567.036 3.11866e-06 
567.566 3.11868e-06 
568.097 3.11873e-06 
568.627 3.11882e-06 
569.157 3.11894e-06 
569.688 3.11908e-06 
570.218 3.11924e-06 
570.748 3.11942e-06 
571.278 3.11961e-06 
571.809 3.11982e-06 
572.339 3.12004e-06 
572.869 3.12028e-06 
573.399 3.12052e-06 
573.93 3.12076e-06 
574.46 3.12102e-06 
574.99 3.12128e-06 
575.521 3.12155e-06 
576.051 3.12182e-06 
576.581 3.1221e-06 
577.111 3.12238e-06 
577.642 3.12266e-06 
578.172 3.12295e-06 
578.702 3.12324e-06 
579.232 3.12354e-06 
579.763 3.12384e-06 
580.293 3.12414e-06 
580.823 3.12445e-06 
581.354 3.12476e-06 
581.884 3.12508e-06 
582.414 3.12541e-06 
582.944 3.12575e-06 
583.475 3.12609e-06 
584.005 3.12645e-06 
584.535 3.12682e-06 
585.065 3.12719e-06 
585.596 3.12754e-06 
586.126 3.12788e-06 
586.656 3.1282e-06 
587.187 3.12851e-06 
587.717 3.12882e-06 
588.247 3.12916e-06 
588.777 3.12954e-06 
589.308 3.12995e-06 
589.838 3.1304e-06 
590.368 3.13086e-06 
590.898 3.1313e-06 
591.429 3.13167e-06 
591.959 3.13194e-06 
592.489 3.13207e-06 
593.02 3.13212e-06 
593.55 3.13213e-06 
594.08 3.13213e-06 
594.61 3.13216e-06 
595.141 3.13221e-06 
595.671 3.1323e-06 
596.201 3.13242e-06 
596.731 3.13256e-06 
597.262 3.13271e-06 
597.792 3.13288e-06 
598.322 3.13307e-06 
598.853 3.13327e-06 
599.383 3.13349e-06 
599.913 3.13371e-06 
600.443 3.13396e-06 
600.974 3.13422e-06 
601.504 3.1345e-06 
602.034 3.13481e-06 
602.564 3.13515e-06 
603.095 3.13549e-06 
603.625 3.13584e-06 
604.155 3.13614e-06 
604.686 3.13636e-06 
605.216 3.13647e-06 
605.746 3.1365e-06 
606.276 3.13647e-06 
606.807 3.13642e-06 
607.337 3.13638e-06 
607.867 3.13636e-06 
608.397 3.13637e-06 
608.928 3.13641e-06 
609.458 3.13646e-06 
609.988 3.13655e-06 
610.519 3.13666e-06 
611.049 3.1368e-06 
611.579 3.13699e-06 
612.109 3.13724e-06 
612.64 3.13758e-06 
613.17 3.13812e-06 
613.7 3.13902e-06 
614.23 3.14073e-06 
614.761 3.1445e-06 
615.291 3.15291e-06 
615.821 3.15906e-06 
616.352 3.15182e-06 
616.882 3.1446e-06 
617.412 3.14122e-06 
617.942 3.13978e-06 
618.473 3.13911e-06 
619.003 3.13881e-06 
619.533 3.13868e-06 
620.063 3.13866e-06 
620.594 3.13869e-06 
621.124 3.13877e-06 
621.654 3.13887e-06 
622.185 3.13898e-06 
622.715 3.13907e-06 
623.245 3.13913e-06 
623.775 3.13916e-06 
624.306 3.13917e-06 
624.836 3.13917e-06 
625.366 3.13918e-06 
625.896 3.13918e-06 
626.427 3.13919e-06 
626.957 3.13921e-06 
627.487 3.13923e-06 
628.018 3.13925e-06 
628.548 3.13927e-06 
629.078 3.13929e-06 
629.608 3.13931e-06 
630.139 3.13933e-06 
630.669 3.13935e-06 
631.199 3.13936e-06 
631.729 3.13937e-06 
632.26 3.13938e-06 
632.79 3.13939e-06 
633.32 3.1394e-06 
633.851 3.1394e-06 
634.381 3.13941e-06 
634.911 3.13942e-06 
635.441 3.13942e-06 
635.972 3.13941e-06 
636.502 3.13938e-06 
637.032 3.13934e-06 
637.562 3.13926e-06 
638.093 3.13915e-06 
638.623 3.13903e-06 
639.153 3.1389e-06 
639.684 3.13877e-06 
640.214 3.13863e-06 
640.744 3.1385e-06 
641.274 3.13836e-06 
641.805 3.13821e-06 
642.335 3.13807e-06 
642.865 3.13792e-06 
643.396 3.13776e-06 
643.926 3.1376e-06 
644.456 3.13744e-06 
644.986 3.13727e-06 
645.517 3.1371e-06 
646.047 3.13693e-06 
646.577 3.13676e-06 
647.107 3.13658e-06 
647.638 3.13642e-06 
648.168 3.13626e-06 
648.698 3.13612e-06 
649.229 3.13599e-06 
649.759 3.13589e-06 
650.289 3.13581e-06 
650.819 3.13574e-06 
651.35 3.13566e-06 
651.88 3.13554e-06 
652.41 3.13533e-06 
652.94 3.13501e-06 
653.471 3.13459e-06 
654.001 3.13413e-06 
654.531 3.13367e-06 
655.062 3.13322e-06 
655.592 3.13282e-06 
656.122 3.13245e-06 
656.652 3.13208e-06 
657.183 3.13168e-06 
657.713 3.13123e-06 
658.243 3.13072e-06 
658.773 3.13018e-06 
659.304 3.12964e-06 
659.834 3.12913e-06 
660.364 3.12868e-06 
660.895 3.1283e-06 
661.425 3.12804e-06 
661.955 3.12793e-06 
662.485 3.12806e-06 
663.016 3.12858e-06 
663.546 3.12983e-06 
664.076 3.13263e-06 
664.606 3.13917e-06 
665.137 3.15499e-06 
665.667 3.17503e-06 
666.197 3.16399e-06 
666.728 3.14393e-06 
667.258 3.13255e-06 
667.788 3.12723e-06 
668.318 3.12437e-06 
668.849 3.12257e-06 
669.379 3.1213e-06 
669.909 3.12032e-06 
670.439 3.11951e-06 
670.97 3.11881e-06 
671.5 3.11818e-06 
672.03 3.11759e-06 
672.561 3.11703e-06 
673.091 3.11649e-06 
673.621 3.11596e-06 
674.151 3.11545e-06 
674.682 3.11493e-06 
675.212 3.11443e-06 
675.742 3.11392e-06 
676.272 3.11341e-06 
676.803 3.11289e-06 
677.333 3.11237e-06 
677.863 3.11185e-06 
678.394 3.11133e-06 
678.924 3.1108e-06 
679.454 3.11026e-06 
679.984 3.10972e-06 
680.515 3.10918e-06 
681.045 3.10863e-06 
681.575 3.10808e-06 
682.105 3.10752e-06 
682.636 3.10696e-06 
683.166 3.1064e-06 
683.696 3.10583e-06 
684.227 3.10524e-06 
684.757 3.10464e-06 
685.287 3.104e-06 
685.817 3.10334e-06 
686.348 3.10266e-06 
686.878 3.10197e-06 
687.408 3.10127e-06 
687.938 3.10056e-06 
688.469 3.09985e-06 
688.999 3.09913e-06 
689.529 3.09841e-06 
690.06 3.09768e-06 
690.59 3.09694e-06 
691.12 3.0962e-06 
691.65 3.09544e-06 
692.181 3.09468e-06 
692.711 3.09391e-06 
693.241 3.09312e-06 
693.771 3.09233e-06 
694.302 3.09153e-06 
694.832 3.09072e-06 
695.362 3.0899e-06 
695.893 3.08908e-06 
696.423 3.08824e-06 
696.953 3.08739e-06 
697.483 3.08653e-06 
698.014 3.08566e-06 
698.544 3.08478e-06 
699.074 3.08389e-06 
699.604 3.083e-06 
700.135 3.08209e-06 
700.665 3.08118e-06 
701.195 3.08026e-06 
701.726 3.07933e-06 
702.256 3.0784e-06 
702.786 3.07746e-06 
703.316 3.07652e-06 
703.847 3.07558e-06 
704.377 3.07464e-06 
704.907 3.07371e-06 
705.438 3.07279e-06 
705.968 3.07189e-06 
706.498 3.071e-06 
707.028 3.07012e-06 
707.559 3.06924e-06 
708.089 3.06833e-06 
708.619 3.06737e-06 
709.149 3.0663e-06 
709.68 3.06514e-06 
710.21 3.06387e-06 
710.74 3.06255e-06 
711.271 3.0612e-06 
711.801 3.05984e-06 
712.331 3.05849e-06 
712.861 3.05717e-06 
713.392 3.05585e-06 
713.922 3.05455e-06 
714.452 3.05325e-06 
714.982 3.05195e-06 
715.513 3.05066e-06 
716.043 3.04936e-06 
716.573 3.04806e-06 
717.104 3.04675e-06 
717.634 3.04544e-06 
718.164 3.04412e-06 
718.694 3.0428e-06 
719.225 3.04146e-06 
719.755 3.04012e-06 
720.285 3.03878e-06 
720.815 3.03742e-06 
721.346 3.03606e-06 
721.876 3.0347e-06 
722.406 3.03334e-06 
722.937 3.03198e-06 
723.467 3.03062e-06 
723.997 3.02927e-06 
724.527 3.02794e-06 
725.058 3.02662e-06 
725.588 3.02534e-06 
726.118 3.02409e-06 
726.648 3.02287e-06 
727.179 3.02167e-06 
727.709 3.02047e-06 
728.239 3.0192e-06 
728.77 3.01779e-06 
729.3 3.01619e-06 
729.83 3.01441e-06 
730.36 3.01251e-06 
730.891 3.01054e-06 
731.421 3.00857e-06 
731.951 3.00663e-06 
732.481 3.00472e-06 
733.012 3.00283e-06 
733.542 3.00097e-06 
734.072 2.99913e-06 
734.603 2.9973e-06 
735.133 2.99547e-06 
735.663 2.99364e-06 
736.193 2.9918e-06 
736.724 2.98996e-06 
737.254 2.98811e-06 
737.784 2.98624e-06 
738.314 2.98436e-06 
738.845 2.98247e-06 
739.375 2.98055e-06 
739.905 2.97863e-06 
740.436 2.97668e-06 
740.966 2.97471e-06 
741.496 2.97272e-06 
742.026 2.97071e-06 
742.557 2.96867e-06 
743.087 2.96661e-06 
743.617 2.96453e-06 
744.147 2.96243e-06 
744.678 2.9603e-06 
745.208 2.95814e-06 
745.738 2.95595e-06 
746.269 2.95374e-06 
746.799 2.9515e-06 
747.329 2.94923e-06 
747.859 2.94693e-06 
748.39 2.9446e-06 
748.92 2.94225e-06 
749.45 2.93986e-06 
749.98 2.93744e-06 
750.511 2.935e-06 
751.041 2.93252e-06 
751.571 2.93002e-06 
752.102 2.92748e-06 
752.632 2.92492e-06 
753.162 2.92233e-06 
753.692 2.91972e-06 
754.223 2.91708e-06 
754.753 2.91443e-06 
755.283 2.91175e-06 
755.813 2.90906e-06 
756.344 2.90636e-06 
756.874 2.90366e-06 
757.404 2.90096e-06 
757.935 2.89827e-06 
758.465 2.89561e-06 
758.995 2.89297e-06 
759.525 2.89038e-06 
760.056 2.88786e-06 
760.586 2.88543e-06 
761.116 2.88312e-06 
761.646 2.88096e-06 
762.177 2.879e-06 
762.707 2.8773e-06 
763.237 2.87592e-06 
763.768 2.87497e-06 
764.298 2.87456e-06 
764.828 2.87485e-06 
765.358 2.87603e-06 
765.889 2.87832e-06 
766.419 2.88199e-06 
766.949 2.88728e-06 
767.479 2.89431e-06 
768.01 2.90285e-06 
768.54 2.91203e-06 
769.07 2.92004e-06 
769.601 2.92437e-06 
770.131 2.92282e-06 
770.661 2.91483e-06 
771.191 2.90185e-06 
771.722 2.88634e-06 
772.252 2.87053e-06 
772.782 2.85577e-06 
773.312 2.84265e-06 
773.843 2.83122e-06 
774.373 2.82133e-06 
774.903 2.81272e-06 
775.434 2.80518e-06 
775.964 2.79848e-06 
776.494 2.79246e-06 
777.024 2.78699e-06 
777.555 2.78197e-06 
778.085 2.77731e-06 
778.615 2.77294e-06 
779.146 2.76877e-06 
779.676 2.76473e-06 
780.206 2.76077e-06 
780.736 2.75687e-06 
781.267 2.75306e-06 
781.797 2.74939e-06 
782.327 2.7459e-06 
782.857 2.74265e-06 
783.388 2.73968e-06 
783.918 2.73704e-06 
784.448 2.7348e-06 
784.979 2.73304e-06 
785.509 2.73189e-06 
786.039 2.73146e-06 
786.569 2.73192e-06 
787.1 2.7334e-06 
787.63 2.73593e-06 
788.16 2.73931e-06 
788.69 2.74292e-06 
789.221 2.74562e-06 
789.751 2.74601e-06 
790.281 2.74309e-06 
790.812 2.737e-06 
791.342 2.72889e-06 
791.872 2.72033e-06 
792.402 2.71258e-06 
792.933 2.70643e-06 
793.463 2.70229e-06 
793.993 2.70038e-06 
794.523 2.70082e-06 
795.054 2.70369e-06 
795.584 2.70919e-06 
796.114 2.71854e-06 
796.645 2.73694e-06 
797.175 2.77188e-06 
797.705 2.77741e-06 
798.235 2.73498e-06 
798.766 2.69201e-06 
799.296 2.66612e-06 
799.826 2.64889e-06 
800.356 2.63592e-06 
800.887 2.62546e-06 
801.417 2.6167e-06 
801.947 2.60915e-06 
802.478 2.6025e-06 
803.008 2.59655e-06 
803.538 2.59114e-06 
804.068 2.58618e-06 
804.599 2.58162e-06 
805.129 2.57743e-06 
805.659 2.57363e-06 
806.189 2.57029e-06 
806.72 2.56757e-06 
807.25 2.5658e-06 
807.78 2.56571e-06 
808.311 2.56902e-06 
808.841 2.58023e-06 
809.371 2.61132e-06 
809.901 2.66585e-06 
810.432 2.66305e-06 
810.962 2.60892e-06 
811.492 2.56842e-06 
812.022 2.54955e-06 
812.553 2.53996e-06 
813.083 2.53448e-06 
813.613 2.53125e-06 
814.144 2.52952e-06 
814.674 2.52889e-06 
815.204 2.52902e-06 
815.734 2.52936e-06 
816.265 2.52911e-06 
816.795 2.52732e-06 
817.325 2.52337e-06 
817.855 2.51734e-06 
818.386 2.50994e-06 
818.916 2.50204e-06 
819.446 2.49434e-06 
819.977 2.48718e-06 
820.507 2.48067e-06 
821.037 2.4748e-06 
821.567 2.46948e-06 
822.098 2.46463e-06 
822.628 2.46017e-06 
823.158 2.45606e-06 
823.688 2.4523e-06 
824.219 2.44893e-06 
824.749 2.44599e-06 
825.279 2.44355e-06 
825.81 2.44167e-06 
826.34 2.4404e-06 
826.87 2.43967e-06 
827.4 2.43926e-06 
827.931 2.43868e-06 
828.461 2.43715e-06 
828.991 2.43392e-06 
829.521 2.42865e-06 
830.052 2.42167e-06 
830.582 2.41373e-06 
831.112 2.40559e-06 
831.643 2.39774e-06 
832.173 2.39041e-06 
832.703 2.38365e-06 
833.233 2.37743e-06 
833.764 2.37171e-06 
834.294 2.36644e-06 
834.824 2.36161e-06 
835.354 2.35719e-06 
835.885 2.3532e-06 
836.415 2.34967e-06 
836.945 2.34666e-06 
837.476 2.34424e-06 
838.006 2.34255e-06 
838.536 2.34172e-06 
839.066 2.34199e-06 
839.597 2.34363e-06 
840.127 2.34699e-06 
840.657 2.3525e-06 
841.188 2.36068e-06 
841.718 2.37205e-06 
842.248 2.387e-06 
842.778 2.40542e-06 
843.309 2.42617e-06 
843.839 2.44633e-06 
844.369 2.4612e-06 
844.899 2.46564e-06 
845.43 2.45686e-06 
845.96 2.43625e-06 
846.49 2.40847e-06 
847.021 2.37866e-06 
847.551 2.35048e-06 
848.081 2.32571e-06 
848.611 2.30483e-06 
849.142 2.28763e-06 
849.672 2.27363e-06 
850.202 2.26225e-06 
850.732 2.25279e-06 
851.263 2.24454e-06 
851.793 2.23673e-06 
852.323 2.22886e-06 
852.854 2.22081e-06 
853.384 2.21282e-06 
853.914 2.20525e-06 
854.444 2.1984e-06 
854.975 2.19242e-06 
855.505 2.18736e-06 
856.035 2.18319e-06 
856.565 2.17985e-06 
857.096 2.17731e-06 
857.626 2.17551e-06 
858.156 2.17441e-06 
858.687 2.17382e-06 
859.217 2.17342e-06 
859.747 2.17284e-06 
860.277 2.17184e-06 
860.808 2.17064e-06 
861.338 2.16987e-06 
861.868 2.17027e-06 
862.398 2.17239e-06 
862.929 2.17631e-06 
863.459 2.18139e-06 
863.989 2.18613e-06 
864.52 2.18828e-06 
865.05 2.18572e-06 
865.58 2.17764e-06 
866.11 2.16507e-06 
866.641 2.15017e-06 
867.171 2.13498e-06 
867.701 2.1208e-06 
868.231 2.10819e-06 
868.762 2.0972e-06 
869.292 2.08767e-06 
869.822 2.07936e-06 
870.353 2.07205e-06 
870.883 2.06553e-06 
871.413 2.05966e-06 
871.943 2.05428e-06 
872.474 2.04932e-06 
873.004 2.04468e-06 
873.534 2.04032e-06 
874.064 2.03617e-06 
874.595 2.03221e-06 
875.125 2.02841e-06 
875.655 2.02475e-06 
876.186 2.02122e-06 
876.716 2.0178e-06 
877.246 2.01451e-06 
877.776 2.01133e-06 
878.307 2.00828e-06 
878.837 2.00538e-06 
879.367 2.00265e-06 
879.897 2.0001e-06 
880.428 1.99775e-06 
880.958 1.99556e-06 
881.488 1.99345e-06 
882.019 1.99122e-06 
882.549 1.9886e-06 
883.079 1.98534e-06 
883.609 1.98135e-06 
884.14 1.97678e-06 
884.67 1.97188e-06 
885.2 1.96691e-06 
885.73 1.96202e-06 
886.261 1.95726e-06 
886.791 1.95265e-06 
887.321 1.94816e-06 
887.852 1.94376e-06 
888.382 1.93942e-06 
888.912 1.93511e-06 
889.442 1.93082e-06 
889.973 1.92652e-06 
890.503 1.92219e-06 
891.033 1.91784e-06 
891.563 1.91344e-06 
892.094 1.909e-06 
892.624 1.9045e-06 
893.154 1.89994e-06 
893.685 1.89532e-06 
894.215 1.89064e-06 
894.745 1.88589e-06 
895.275 1.88108e-06 
895.806 1.87622e-06 
896.336 1.87131e-06 
896.866 1.86637e-06 
897.396 1.86141e-06 
897.927 1.85648e-06 
898.457 1.85162e-06 
898.987 1.84691e-06 
899.518 1.84251e-06 
900.048 1.83867e-06 
900.578 1.83595e-06 
901.108 1.83551e-06 
901.639 1.84036e-06 
902.169 1.85861e-06 
902.699 1.9028e-06 
903.229 1.92591e-06 
903.76 1.88507e-06 
904.29 1.83332e-06 
904.82 1.80658e-06 
905.351 1.79226e-06 
905.881 1.78318e-06 
906.411 1.77678e-06 
906.941 1.77218e-06 
907.472 1.76908e-06 
908.002 1.7675e-06 
908.532 1.76755e-06 
909.062 1.76937e-06 
