#energy geo_1 
400 2.02975e-06 
400.53 2.03015e-06 
401.061 2.03053e-06 
401.591 2.0309e-06 
402.121 2.03126e-06 
402.651 2.03161e-06 
403.182 2.03195e-06 
403.712 2.03228e-06 
404.242 2.03261e-06 
404.772 2.03293e-06 
405.303 2.03325e-06 
405.833 2.03357e-06 
406.363 2.03389e-06 
406.894 2.03423e-06 
407.424 2.03458e-06 
407.954 2.03495e-06 
408.484 2.03535e-06 
409.015 2.03578e-06 
409.545 2.03626e-06 
410.075 2.0368e-06 
410.605 2.03741e-06 
411.136 2.03814e-06 
411.666 2.03906e-06 
412.196 2.04033e-06 
412.727 2.04219e-06 
413.257 2.04509e-06 
413.787 2.05006e-06 
414.317 2.05961e-06 
414.848 2.08071e-06 
415.378 2.12777e-06 
415.908 2.15723e-06 
416.438 2.10755e-06 
416.969 2.0755e-06 
417.499 2.06324e-06 
418.029 2.05924e-06 
418.56 2.05902e-06 
419.09 2.06099e-06 
419.62 2.06446e-06 
420.15 2.06896e-06 
420.681 2.0739e-06 
421.211 2.07831e-06 
421.741 2.08104e-06 
422.271 2.08125e-06 
422.802 2.07895e-06 
423.332 2.07498e-06 
423.862 2.07048e-06 
424.393 2.06632e-06 
424.923 2.06298e-06 
425.453 2.06064e-06 
425.983 2.05934e-06 
426.514 2.05905e-06 
427.044 2.05971e-06 
427.574 2.0612e-06 
428.104 2.06335e-06 
428.635 2.06589e-06 
429.165 2.06849e-06 
429.695 2.07076e-06 
430.226 2.07226e-06 
430.756 2.07246e-06 
431.286 2.071e-06 
431.816 2.06802e-06 
432.347 2.0641e-06 
432.877 2.05993e-06 
433.407 2.05603e-06 
433.938 2.05261e-06 
434.468 2.04974e-06 
434.998 2.04738e-06 
435.528 2.04552e-06 
436.059 2.04408e-06 
436.589 2.04298e-06 
437.119 2.04204e-06 
437.649 2.04106e-06 
438.18 2.03987e-06 
438.71 2.03843e-06 
439.24 2.0368e-06 
439.771 2.03514e-06 
440.301 2.03355e-06 
440.831 2.03211e-06 
441.361 2.03083e-06 
441.892 2.02971e-06 
442.422 2.02875e-06 
442.952 2.02793e-06 
443.482 2.02727e-06 
444.013 2.02676e-06 
444.543 2.02641e-06 
445.073 2.02625e-06 
445.604 2.0263e-06 
446.134 2.02661e-06 
446.664 2.02724e-06 
447.194 2.02824e-06 
447.725 2.02971e-06 
448.255 2.03176e-06 
448.785 2.03454e-06 
449.315 2.03824e-06 
449.846 2.04308e-06 
450.376 2.04937e-06 
450.906 2.05748e-06 
451.437 2.06788e-06 
451.967 2.0811e-06 
452.497 2.09773e-06 
453.027 2.11831e-06 
453.558 2.14307e-06 
454.088 2.17138e-06 
454.618 2.20094e-06 
455.148 2.2271e-06 
455.679 2.24354e-06 
456.209 2.24516e-06 
456.739 2.23146e-06 
457.27 2.207e-06 
457.8 2.17829e-06 
458.33 2.15063e-06 
458.86 2.12704e-06 
459.391 2.10868e-06 
459.921 2.09574e-06 
460.451 2.08805e-06 
460.981 2.08538e-06 
461.512 2.0876e-06 
462.042 2.09459e-06 
462.572 2.10614e-06 
463.103 2.1214e-06 
463.633 2.13835e-06 
464.163 2.15327e-06 
464.693 2.16128e-06 
465.224 2.15853e-06 
465.754 2.14465e-06 
466.284 2.12298e-06 
466.814 2.09819e-06 
467.345 2.07406e-06 
467.875 2.05259e-06 
468.405 2.03445e-06 
468.936 2.01955e-06 
469.466 2.00751e-06 
469.996 1.99785e-06 
470.526 1.99019e-06 
471.057 1.98418e-06 
471.587 1.97957e-06 
472.117 1.97621e-06 
472.647 1.97397e-06 
473.178 1.9728e-06 
473.708 1.97269e-06 
474.238 1.97363e-06 
474.769 1.97558e-06 
475.299 1.97834e-06 
475.829 1.98149e-06 
476.359 1.98431e-06 
476.89 1.98602e-06 
477.42 1.98623e-06 
477.95 1.98523e-06 
478.48 1.98389e-06 
479.011 1.98316e-06 
479.541 1.98373e-06 
480.071 1.98591e-06 
480.602 1.98961e-06 
481.132 1.99425e-06 
481.662 1.99868e-06 
482.192 2.00137e-06 
482.723 2.00114e-06 
483.253 1.99791e-06 
483.783 1.99276e-06 
484.313 1.98721e-06 
484.844 1.98256e-06 
485.374 1.97959e-06 
485.904 1.97872e-06 
486.435 1.98016e-06 
486.965 1.98408e-06 
487.495 1.99064e-06 
488.025 1.99991e-06 
488.556 2.01169e-06 
489.086 2.02521e-06 
489.616 2.03877e-06 
490.146 2.04987e-06 
490.677 2.05597e-06 
491.207 2.05586e-06 
491.737 2.05027e-06 
492.268 2.04146e-06 
492.798 2.03213e-06 
493.328 2.02451e-06 
493.858 2.01993e-06 
494.389 2.01882e-06 
494.919 2.02079e-06 
495.449 2.02469e-06 
495.979 2.02873e-06 
496.51 2.03109e-06 
497.04 2.03091e-06 
497.57 2.02863e-06 
498.101 2.02523e-06 
498.631 2.02108e-06 
499.161 2.01559e-06 
499.691 2.00786e-06 
500.222 1.99773e-06 
500.752 1.9861e-06 
501.282 1.97432e-06 
501.812 1.96348e-06 
502.343 1.95412e-06 
502.873 1.94638e-06 
503.403 1.94014e-06 
503.934 1.93521e-06 
504.464 1.93137e-06 
504.994 1.92845e-06 
505.524 1.92631e-06 
506.055 1.92483e-06 
506.585 1.92396e-06 
507.115 1.92363e-06 
507.646 1.92384e-06 
508.176 1.92458e-06 
508.706 1.92588e-06 
509.236 1.9278e-06 
509.767 1.93044e-06 
510.297 1.93391e-06 
510.827 1.93838e-06 
511.357 1.94409e-06 
511.888 1.95129e-06 
512.418 1.96031e-06 
512.948 1.97144e-06 
513.479 1.98482e-06 
514.009 2.00016e-06 
514.539 2.01636e-06 
515.069 2.03105e-06 
515.6 2.04092e-06 
516.13 2.04302e-06 
516.66 2.03666e-06 
517.19 2.02384e-06 
517.721 2.00791e-06 
518.251 1.99177e-06 
518.781 1.97712e-06 
519.312 1.9646e-06 
519.842 1.95423e-06 
520.372 1.94578e-06 
520.902 1.93891e-06 
521.433 1.93332e-06 
521.963 1.92875e-06 
522.493 1.92499e-06 
523.023 1.92186e-06 
523.554 1.91925e-06 
524.084 1.91704e-06 
524.614 1.91517e-06 
525.145 1.91355e-06 
525.675 1.91213e-06 
526.205 1.91083e-06 
526.735 1.90958e-06 
527.266 1.90832e-06 
527.796 1.90704e-06 
528.326 1.90574e-06 
528.856 1.90444e-06 
529.387 1.90318e-06 
529.917 1.90195e-06 
530.447 1.90075e-06 
530.978 1.89957e-06 
531.508 1.89841e-06 
532.038 1.89726e-06 
532.568 1.89612e-06 
533.099 1.89497e-06 
533.629 1.89382e-06 
534.159 1.89267e-06 
534.689 1.89153e-06 
535.22 1.89039e-06 
535.75 1.88927e-06 
536.28 1.88818e-06 
536.811 1.88713e-06 
537.341 1.88614e-06 
537.871 1.88524e-06 
538.401 1.88448e-06 
538.932 1.88389e-06 
539.462 1.88355e-06 
539.992 1.88356e-06 
540.522 1.88406e-06 
541.053 1.88525e-06 
541.583 1.88745e-06 
542.113 1.89118e-06 
542.644 1.89728e-06 
543.174 1.90727e-06 
543.704 1.92402e-06 
544.234 1.95358e-06 
544.765 2.00998e-06 
545.295 2.13022e-06 
545.825 2.41501e-06 
546.355 2.92606e-06 
546.886 2.84086e-06 
547.416 2.38307e-06 
547.946 2.11749e-06 
548.477 2.00075e-06 
549.007 1.94519e-06 
549.537 1.91557e-06 
550.067 1.89842e-06 
550.598 1.88799e-06 
551.128 1.88155e-06 
551.658 1.87771e-06 
552.188 1.87571e-06 
552.719 1.87516e-06 
553.249 1.87584e-06 
553.779 1.87767e-06 
554.31 1.88058e-06 
554.84 1.88444e-06 
555.37 1.88893e-06 
555.9 1.89341e-06 
556.431 1.89686e-06 
556.961 1.89824e-06 
557.491 1.89704e-06 
558.021 1.89363e-06 
558.552 1.88898e-06 
559.082 1.88407e-06 
559.612 1.87955e-06 
560.143 1.87572e-06 
560.673 1.87261e-06 
561.203 1.87018e-06 
561.733 1.86832e-06 
562.264 1.86692e-06 
562.794 1.8659e-06 
563.324 1.86518e-06 
563.854 1.8647e-06 
564.385 1.86442e-06 
564.915 1.8643e-06 
565.445 1.86432e-06 
565.976 1.86445e-06 
566.506 1.86468e-06 
567.036 1.865e-06 
567.566 1.86537e-06 
568.097 1.86579e-06 
568.627 1.86622e-06 
569.157 1.86665e-06 
569.688 1.86705e-06 
570.218 1.86744e-06 
570.748 1.86784e-06 
571.278 1.86826e-06 
571.809 1.8687e-06 
572.339 1.86917e-06 
572.869 1.86967e-06 
573.399 1.87019e-06 
573.93 1.87073e-06 
574.46 1.87129e-06 
574.99 1.87186e-06 
575.521 1.87244e-06 
576.051 1.87303e-06 
576.581 1.87363e-06 
577.111 1.87423e-06 
577.642 1.87484e-06 
578.172 1.87546e-06 
578.702 1.87608e-06 
579.232 1.8767e-06 
579.763 1.87732e-06 
580.293 1.87795e-06 
580.823 1.87858e-06 
581.354 1.87921e-06 
581.884 1.87984e-06 
582.414 1.88048e-06 
582.944 1.88111e-06 
583.475 1.88175e-06 
584.005 1.88239e-06 
584.535 1.88304e-06 
585.065 1.88369e-06 
585.596 1.88434e-06 
586.126 1.88501e-06 
586.656 1.88568e-06 
587.187 1.88637e-06 
587.717 1.88708e-06 
588.247 1.88781e-06 
588.777 1.88857e-06 
589.308 1.88937e-06 
589.838 1.89022e-06 
590.368 1.89113e-06 
590.898 1.89208e-06 
591.429 1.89307e-06 
591.959 1.89405e-06 
592.489 1.89496e-06 
593.02 1.89574e-06 
593.55 1.89637e-06 
594.08 1.89689e-06 
594.61 1.89738e-06 
595.141 1.89791e-06 
595.671 1.89855e-06 
596.201 1.89933e-06 
596.731 1.90029e-06 
597.262 1.90147e-06 
597.792 1.90292e-06 
598.322 1.90474e-06 
598.853 1.90706e-06 
599.383 1.91012e-06 
599.913 1.91442e-06 
600.443 1.92107e-06 
600.974 1.93309e-06 
601.504 1.95503e-06 
602.034 1.96406e-06 
602.564 1.94959e-06 
603.095 1.93764e-06 
603.625 1.93122e-06 
604.155 1.92677e-06 
604.686 1.92302e-06 
605.216 1.9198e-06 
605.746 1.91713e-06 
606.276 1.91503e-06 
606.807 1.91342e-06 
607.337 1.91223e-06 
607.867 1.91139e-06 
608.397 1.91081e-06 
608.928 1.91045e-06 
609.458 1.91027e-06 
609.988 1.91022e-06 
610.519 1.91029e-06 
611.049 1.91045e-06 
611.579 1.9107e-06 
612.109 1.91102e-06 
612.64 1.91141e-06 
613.17 1.91187e-06 
613.7 1.9124e-06 
614.23 1.91301e-06 
614.761 1.91369e-06 
615.291 1.91447e-06 
615.821 1.91535e-06 
616.352 1.91636e-06 
616.882 1.91752e-06 
617.412 1.91886e-06 
617.942 1.92043e-06 
618.473 1.92226e-06 
619.003 1.92444e-06 
619.533 1.92705e-06 
620.063 1.9302e-06 
620.594 1.93403e-06 
621.124 1.93872e-06 
621.654 1.94447e-06 
622.185 1.95149e-06 
622.715 1.95996e-06 
623.245 1.96985e-06 
623.775 1.98074e-06 
624.306 1.99149e-06 
624.836 2.00019e-06 
625.366 2.00467e-06 
625.896 2.00363e-06 
626.427 1.99757e-06 
626.957 1.98838e-06 
627.487 1.97819e-06 
628.018 1.96852e-06 
628.548 1.96013e-06 
629.078 1.9532e-06 
629.608 1.94766e-06 
630.139 1.9433e-06 
630.669 1.93991e-06 
631.199 1.93731e-06 
631.729 1.93534e-06 
632.26 1.93387e-06 
632.79 1.93282e-06 
633.32 1.93209e-06 
633.851 1.93159e-06 
634.381 1.93125e-06 
634.911 1.93099e-06 
635.441 1.93076e-06 
635.972 1.93054e-06 
636.502 1.93034e-06 
637.032 1.9302e-06 
637.562 1.93013e-06 
638.093 1.93012e-06 
638.623 1.93017e-06 
639.153 1.93027e-06 
639.684 1.93041e-06 
640.214 1.93058e-06 
640.744 1.93077e-06 
641.274 1.93097e-06 
641.805 1.93117e-06 
642.335 1.93137e-06 
642.865 1.93157e-06 
643.396 1.93175e-06 
643.926 1.93192e-06 
644.456 1.93207e-06 
644.986 1.93219e-06 
645.517 1.93229e-06 
646.047 1.93236e-06 
646.577 1.93239e-06 
647.107 1.93238e-06 
647.638 1.93233e-06 
648.168 1.93224e-06 
648.698 1.93211e-06 
649.229 1.93193e-06 
649.759 1.9317e-06 
650.289 1.93142e-06 
650.819 1.93108e-06 
651.35 1.9307e-06 
651.88 1.93027e-06 
652.41 1.92979e-06 
652.94 1.92926e-06 
653.471 1.92869e-06 
654.001 1.92808e-06 
654.531 1.92745e-06 
655.062 1.92681e-06 
655.592 1.92617e-06 
656.122 1.92554e-06 
656.652 1.92492e-06 
657.183 1.9243e-06 
657.713 1.92361e-06 
658.243 1.92275e-06 
658.773 1.92157e-06 
659.304 1.91999e-06 
659.834 1.91804e-06 
660.364 1.91582e-06 
660.895 1.91348e-06 
661.425 1.91116e-06 
661.955 1.90892e-06 
662.485 1.90681e-06 
663.016 1.90486e-06 
663.546 1.90309e-06 
664.076 1.90156e-06 
664.606 1.9003e-06 
665.137 1.89941e-06 
665.667 1.89899e-06 
666.197 1.89918e-06 
666.728 1.90018e-06 
667.258 1.90225e-06 
667.788 1.90575e-06 
668.318 1.91115e-06 
668.849 1.91907e-06 
669.379 1.93036e-06 
669.909 1.9462e-06 
670.439 1.96854e-06 
670.97 2.00135e-06 
671.5 2.05411e-06 
672.03 2.15088e-06 
672.561 2.35665e-06 
673.091 2.84642e-06 
673.621 3.70916e-06 
674.151 3.63191e-06 
674.682 2.86609e-06 
675.212 2.34688e-06 
675.742 2.11549e-06 
676.272 2.00509e-06 
676.803 1.94532e-06 
677.333 1.90954e-06 
677.863 1.88647e-06 
678.394 1.87072e-06 
678.924 1.85952e-06 
679.454 1.85127e-06 
679.984 1.84505e-06 
680.515 1.84026e-06 
681.045 1.83653e-06 
681.575 1.83359e-06 
682.105 1.83129e-06 
682.636 1.8295e-06 
683.166 1.82815e-06 
683.696 1.82719e-06 
684.227 1.82659e-06 
684.757 1.82635e-06 
685.287 1.82649e-06 
685.817 1.82702e-06 
686.348 1.82802e-06 
686.878 1.82955e-06 
687.408 1.83172e-06 
687.938 1.83469e-06 
688.469 1.83863e-06 
688.999 1.84381e-06 
689.529 1.85053e-06 
690.06 1.85916e-06 
690.59 1.87011e-06 
691.12 1.88371e-06 
691.65 1.90001e-06 
692.181 1.91836e-06 
692.711 1.93686e-06 
693.241 1.9521e-06 
693.771 1.95994e-06 
694.302 1.95748e-06 
694.832 1.945e-06 
695.362 1.92571e-06 
695.893 1.90369e-06 
696.423 1.8821e-06 
696.953 1.86261e-06 
697.483 1.84576e-06 
698.014 1.83147e-06 
698.544 1.81939e-06 
699.074 1.80911e-06 
699.604 1.80022e-06 
700.135 1.79236e-06 
700.665 1.78518e-06 
701.195 1.77843e-06 
701.726 1.77194e-06 
702.256 1.76564e-06 
702.786 1.7595e-06 
703.316 1.75352e-06 
703.847 1.74767e-06 
704.377 1.74193e-06 
704.907 1.73624e-06 
705.438 1.7306e-06 
705.968 1.72497e-06 
706.498 1.71934e-06 
707.028 1.71369e-06 
707.559 1.70804e-06 
708.089 1.70239e-06 
708.619 1.69676e-06 
709.149 1.69117e-06 
709.68 1.68567e-06 
710.21 1.68032e-06 
710.74 1.67519e-06 
711.271 1.67037e-06 
711.801 1.66601e-06 
712.331 1.66228e-06 
712.861 1.65943e-06 
713.392 1.6578e-06 
713.922 1.6579e-06 
714.452 1.66042e-06 
714.982 1.66648e-06 
715.513 1.67778e-06 
716.043 1.69714e-06 
716.573 1.7295e-06 
717.104 1.784e-06 
717.634 1.87923e-06 
718.164 2.05695e-06 
718.694 2.42333e-06 
719.225 3.27069e-06 
719.755 5.06028e-06 
720.285 5.81325e-06 
720.815 4.34015e-06 
721.346 2.91599e-06 
721.876 2.25314e-06 
722.406 1.95243e-06 
722.937 1.79825e-06 
723.467 1.71063e-06 
723.997 1.65718e-06 
724.527 1.62316e-06 
725.058 1.60123e-06 
725.588 1.58742e-06 
726.118 1.57944e-06 
726.648 1.57573e-06 
727.179 1.57499e-06 
727.709 1.57597e-06 
728.239 1.57787e-06 
728.77 1.58197e-06 
729.3 1.59471e-06 
729.83 1.61868e-06 
730.36 1.60774e-06 
730.891 1.57286e-06 
731.421 1.54813e-06 
731.951 1.53574e-06 
732.481 1.52942e-06 
733.012 1.52642e-06 
733.542 1.5255e-06 
734.072 1.52586e-06 
734.603 1.52679e-06 
735.133 1.52785e-06 
735.663 1.52897e-06 
736.193 1.53053e-06 
736.724 1.53314e-06 
737.254 1.53731e-06 
737.784 1.54322e-06 
738.314 1.55047e-06 
738.845 1.55789e-06 
739.375 1.56358e-06 
739.905 1.56545e-06 
740.436 1.56234e-06 
740.966 1.55478e-06 
741.496 1.54456e-06 
742.026 1.53363e-06 
742.557 1.52339e-06 
743.087 1.51447e-06 
743.617 1.50703e-06 
744.147 1.50095e-06 
744.678 1.49604e-06 
745.208 1.49208e-06 
745.738 1.48889e-06 
746.269 1.48632e-06 
746.799 1.48423e-06 
747.329 1.48254e-06 
747.859 1.48116e-06 
748.39 1.48004e-06 
748.92 1.47913e-06 
749.45 1.47839e-06 
749.98 1.4778e-06 
750.511 1.47732e-06 
751.041 1.47694e-06 
751.571 1.47665e-06 
752.102 1.47643e-06 
752.632 1.47627e-06 
753.162 1.47617e-06 
753.692 1.47611e-06 
754.223 1.47609e-06 
754.753 1.47611e-06 
755.283 1.47615e-06 
755.813 1.47623e-06 
756.344 1.47634e-06 
756.874 1.47648e-06 
757.404 1.47664e-06 
757.935 1.47684e-06 
758.465 1.47706e-06 
758.995 1.47733e-06 
759.525 1.47763e-06 
760.056 1.47796e-06 
760.586 1.47832e-06 
761.116 1.47868e-06 
761.646 1.479e-06 
762.177 1.47928e-06 
762.707 1.4795e-06 
763.237 1.4797e-06 
763.768 1.47991e-06 
764.298 1.48018e-06 
764.828 1.48053e-06 
765.358 1.481e-06 
765.889 1.48162e-06 
766.419 1.48241e-06 
766.949 1.48344e-06 
767.479 1.48479e-06 
768.01 1.48662e-06 
768.54 1.48917e-06 
769.07 1.4929e-06 
769.601 1.49875e-06 
770.131 1.50888e-06 
770.661 1.5289e-06 
771.191 1.57356e-06 
771.722 1.6461e-06 
772.252 1.64489e-06 
772.782 1.58643e-06 
773.312 1.54614e-06 
773.843 1.52979e-06 
774.373 1.52236e-06 
774.903 1.51747e-06 
775.434 1.51304e-06 
775.964 1.50869e-06 
776.494 1.50463e-06 
777.024 1.50109e-06 
777.555 1.49818e-06 
778.085 1.49588e-06 
778.615 1.49412e-06 
779.146 1.49281e-06 
779.676 1.49185e-06 
780.206 1.49118e-06 
780.736 1.49073e-06 
781.267 1.49046e-06 
781.797 1.49033e-06 
782.327 1.49031e-06 
782.857 1.49039e-06 
783.388 1.49054e-06 
783.918 1.49075e-06 
784.448 1.49102e-06 
784.979 1.49133e-06 
785.509 1.49167e-06 
786.039 1.49205e-06 
786.569 1.49245e-06 
787.1 1.49288e-06 
787.63 1.49333e-06 
788.16 1.4938e-06 
788.69 1.49429e-06 
789.221 1.49481e-06 
789.751 1.49534e-06 
790.281 1.49589e-06 
790.812 1.49646e-06 
791.342 1.49706e-06 
791.872 1.49769e-06 
792.402 1.49835e-06 
792.933 1.49904e-06 
793.463 1.49977e-06 
793.993 1.50056e-06 
794.523 1.5014e-06 
795.054 1.50232e-06 
795.584 1.50333e-06 
796.114 1.50444e-06 
796.645 1.50569e-06 
797.175 1.50711e-06 
797.705 1.50874e-06 
798.235 1.51064e-06 
798.766 1.51287e-06 
799.296 1.51553e-06 
799.826 1.5187e-06 
800.356 1.52248e-06 
800.887 1.52692e-06 
801.417 1.53197e-06 
801.947 1.53733e-06 
802.478 1.54237e-06 
803.008 1.54615e-06 
803.538 1.54777e-06 
804.068 1.5469e-06 
804.599 1.54398e-06 
805.129 1.53996e-06 
805.659 1.53574e-06 
806.189 1.53189e-06 
806.72 1.52866e-06 
807.25 1.52609e-06 
807.78 1.52412e-06 
808.311 1.52266e-06 
808.841 1.5216e-06 
809.371 1.52087e-06 
809.901 1.52041e-06 
810.432 1.52015e-06 
810.962 1.52006e-06 
811.492 1.5201e-06 
812.022 1.52025e-06 
812.553 1.52049e-06 
813.083 1.52081e-06 
813.613 1.52119e-06 
814.144 1.52162e-06 
814.674 1.52209e-06 
815.204 1.5226e-06 
815.734 1.52314e-06 
816.265 1.52371e-06 
816.795 1.52431e-06 
817.325 1.52492e-06 
817.855 1.52556e-06 
818.386 1.52622e-06 
818.916 1.52689e-06 
819.446 1.52758e-06 
819.977 1.52829e-06 
820.507 1.52901e-06 
821.037 1.52975e-06 
821.567 1.53051e-06 
822.098 1.53129e-06 
822.628 1.53208e-06 
823.158 1.53291e-06 
823.688 1.53376e-06 
824.219 1.53465e-06 
824.749 1.53559e-06 
825.279 1.53656e-06 
825.81 1.53758e-06 
826.34 1.53863e-06 
826.87 1.53967e-06 
827.4 1.54064e-06 
827.931 1.54151e-06 
828.461 1.54222e-06 
828.991 1.5428e-06 
829.521 1.54331e-06 
830.052 1.5438e-06 
830.582 1.54431e-06 
831.112 1.54486e-06 
831.643 1.54545e-06 
832.173 1.54607e-06 
832.703 1.54673e-06 
833.233 1.54742e-06 
833.764 1.54813e-06 
834.294 1.54886e-06 
834.824 1.5496e-06 
835.354 1.55035e-06 
835.885 1.55112e-06 
836.415 1.55188e-06 
836.945 1.55266e-06 
837.476 1.55344e-06 
838.006 1.55422e-06 
838.536 1.55501e-06 
839.066 1.5558e-06 
839.597 1.55659e-06 
840.127 1.55739e-06 
840.657 1.55818e-06 
841.188 1.55897e-06 
841.718 1.55977e-06 
842.248 1.56056e-06 
842.778 1.56135e-06 
843.309 1.56215e-06 
843.839 1.56294e-06 
844.369 1.56373e-06 
844.899 1.56452e-06 
845.43 1.5653e-06 
845.96 1.56609e-06 
846.49 1.56687e-06 
847.021 1.56765e-06 
847.551 1.56843e-06 
848.081 1.56921e-06 
848.611 1.56998e-06 
849.142 1.57075e-06 
849.672 1.57152e-06 
850.202 1.57228e-06 
850.732 1.57305e-06 
851.263 1.57381e-06 
851.793 1.57457e-06 
852.323 1.57532e-06 
852.854 1.57608e-06 
853.384 1.57684e-06 
853.914 1.57759e-06 
854.444 1.57835e-06 
854.975 1.57911e-06 
855.505 1.57987e-06 
856.035 1.58064e-06 
856.565 1.58142e-06 
857.096 1.5822e-06 
857.626 1.58299e-06 
858.156 1.5838e-06 
858.687 1.58463e-06 
859.217 1.58548e-06 
859.747 1.58636e-06 
860.277 1.58727e-06 
860.808 1.58823e-06 
861.338 1.58923e-06 
861.868 1.5903e-06 
862.398 1.59145e-06 
862.929 1.59269e-06 
863.459 1.59405e-06 
863.989 1.59555e-06 
864.52 1.59724e-06 
865.05 1.59915e-06 
865.58 1.60134e-06 
866.11 1.60389e-06 
866.641 1.6069e-06 
867.171 1.61047e-06 
867.701 1.61476e-06 
868.231 1.61993e-06 
868.762 1.62616e-06 
869.292 1.63355e-06 
869.822 1.64206e-06 
870.353 1.65125e-06 
870.883 1.66012e-06 
871.413 1.66705e-06 
871.943 1.67039e-06 
872.474 1.66929e-06 
873.004 1.66433e-06 
873.534 1.65708e-06 
874.064 1.6492e-06 
874.595 1.64185e-06 
875.125 1.63555e-06 
875.655 1.63044e-06 
876.186 1.62641e-06 
876.716 1.62332e-06 
877.246 1.62098e-06 
877.776 1.61924e-06 
878.307 1.618e-06 
878.837 1.61713e-06 
879.367 1.61657e-06 
879.897 1.61626e-06 
880.428 1.61616e-06 
880.958 1.61621e-06 
881.488 1.6164e-06 
882.019 1.6167e-06 
882.549 1.61709e-06 
883.079 1.61756e-06 
883.609 1.6181e-06 
884.14 1.6187e-06 
884.67 1.61934e-06 
885.2 1.62003e-06 
885.73 1.62075e-06 
886.261 1.62151e-06 
886.791 1.6223e-06 
887.321 1.62311e-06 
887.852 1.62394e-06 
888.382 1.6248e-06 
888.912 1.62567e-06 
889.442 1.62656e-06 
889.973 1.62747e-06 
890.503 1.62839e-06 
891.033 1.62932e-06 
891.563 1.63027e-06 
892.094 1.63122e-06 
892.624 1.63219e-06 
893.154 1.63317e-06 
893.685 1.63415e-06 
894.215 1.63514e-06 
894.745 1.63614e-06 
895.275 1.63715e-06 
895.806 1.63816e-06 
896.336 1.63918e-06 
896.866 1.64021e-06 
897.396 1.64124e-06 
897.927 1.64227e-06 
898.457 1.64331e-06 
898.987 1.64435e-06 
899.518 1.64539e-06 
900.048 1.64643e-06 
900.578 1.64748e-06 
901.108 1.64852e-06 
901.639 1.64956e-06 
902.169 1.65061e-06 
902.699 1.65164e-06 
903.229 1.65268e-06 
903.76 1.65371e-06 
904.29 1.65473e-06 
904.82 1.65575e-06 
905.351 1.65675e-06 
905.881 1.65775e-06 
906.411 1.65873e-06 
906.941 1.6597e-06 
907.472 1.66065e-06 
908.002 1.66158e-06 
908.532 1.6625e-06 
909.062 1.66338e-06 
