#energy geo_1 
400 2.96462e-07 
400.53 2.96503e-07 
401.061 2.96544e-07 
401.591 2.96584e-07 
402.121 2.96623e-07 
402.651 2.96662e-07 
403.182 2.96701e-07 
403.712 2.9674e-07 
404.242 2.96778e-07 
404.772 2.96817e-07 
405.303 2.96856e-07 
405.833 2.96896e-07 
406.363 2.96936e-07 
406.894 2.96977e-07 
407.424 2.97019e-07 
407.954 2.97061e-07 
408.484 2.97105e-07 
409.015 2.97149e-07 
409.545 2.97193e-07 
410.075 2.97238e-07 
410.605 2.97283e-07 
411.136 2.97328e-07 
411.666 2.97374e-07 
412.196 2.97418e-07 
412.727 2.97462e-07 
413.257 2.97506e-07 
413.787 2.97549e-07 
414.317 2.97591e-07 
414.848 2.97633e-07 
415.378 2.97674e-07 
415.908 2.97714e-07 
416.438 2.97755e-07 
416.969 2.97794e-07 
417.499 2.97834e-07 
418.029 2.97873e-07 
418.56 2.97913e-07 
419.09 2.97952e-07 
419.62 2.97992e-07 
420.15 2.98032e-07 
420.681 2.98073e-07 
421.211 2.98114e-07 
421.741 2.98156e-07 
422.271 2.98198e-07 
422.802 2.9824e-07 
423.332 2.98283e-07 
423.862 2.98326e-07 
424.393 2.9837e-07 
424.923 2.98413e-07 
425.453 2.98457e-07 
425.983 2.985e-07 
426.514 2.98544e-07 
427.044 2.98587e-07 
427.574 2.98631e-07 
428.104 2.98674e-07 
428.635 2.98716e-07 
429.165 2.98759e-07 
429.695 2.98801e-07 
430.226 2.98842e-07 
430.756 2.98884e-07 
431.286 2.98925e-07 
431.816 2.98966e-07 
432.347 2.99007e-07 
432.877 2.99048e-07 
433.407 2.99089e-07 
433.938 2.9913e-07 
434.468 2.99171e-07 
434.998 2.99213e-07 
435.528 2.99254e-07 
436.059 2.99296e-07 
436.589 2.99338e-07 
437.119 2.99381e-07 
437.649 2.99423e-07 
438.18 2.99467e-07 
438.71 2.9951e-07 
439.24 2.99554e-07 
439.771 2.99598e-07 
440.301 2.99643e-07 
440.831 2.99687e-07 
441.361 2.99732e-07 
441.892 2.99777e-07 
442.422 2.99822e-07 
442.952 2.99867e-07 
443.482 2.99911e-07 
444.013 2.99956e-07 
444.543 3.00001e-07 
445.073 3.00045e-07 
445.604 3.00089e-07 
446.134 3.00133e-07 
446.664 3.00176e-07 
447.194 3.00219e-07 
447.725 3.00262e-07 
448.255 3.00305e-07 
448.785 3.00347e-07 
449.315 3.00389e-07 
449.846 3.00431e-07 
450.376 3.00473e-07 
450.906 3.00514e-07 
451.437 3.00556e-07 
451.967 3.00597e-07 
452.497 3.00639e-07 
453.027 3.0068e-07 
453.558 3.00722e-07 
454.088 3.00764e-07 
454.618 3.00806e-07 
455.148 3.00848e-07 
455.679 3.00891e-07 
456.209 3.00934e-07 
456.739 3.00977e-07 
457.27 3.01021e-07 
457.8 3.01065e-07 
458.33 3.0111e-07 
458.86 3.01154e-07 
459.391 3.01199e-07 
459.921 3.01245e-07 
460.451 3.0129e-07 
460.981 3.01336e-07 
461.512 3.01382e-07 
462.042 3.01428e-07 
462.572 3.01475e-07 
463.103 3.01521e-07 
463.633 3.01567e-07 
464.163 3.01614e-07 
464.693 3.0166e-07 
465.224 3.01706e-07 
465.754 3.01752e-07 
466.284 3.01798e-07 
466.814 3.01844e-07 
467.345 3.0189e-07 
467.875 3.01935e-07 
468.405 3.0198e-07 
468.936 3.02024e-07 
469.466 3.02069e-07 
469.996 3.02113e-07 
470.526 3.02157e-07 
471.057 3.02201e-07 
471.587 3.02245e-07 
472.117 3.02289e-07 
472.647 3.02332e-07 
473.178 3.02375e-07 
473.708 3.02419e-07 
474.238 3.02462e-07 
474.769 3.02505e-07 
475.299 3.02548e-07 
475.829 3.02592e-07 
476.359 3.02635e-07 
476.89 3.02679e-07 
477.42 3.02723e-07 
477.95 3.02767e-07 
478.48 3.02811e-07 
479.011 3.02856e-07 
479.541 3.029e-07 
480.071 3.02945e-07 
480.602 3.02991e-07 
481.132 3.03036e-07 
481.662 3.03082e-07 
482.192 3.03128e-07 
482.723 3.03175e-07 
483.253 3.03221e-07 
483.783 3.03268e-07 
484.313 3.03315e-07 
484.844 3.03362e-07 
485.374 3.0341e-07 
485.904 3.03457e-07 
486.435 3.03505e-07 
486.965 3.03553e-07 
487.495 3.036e-07 
488.025 3.03648e-07 
488.556 3.03696e-07 
489.086 3.03743e-07 
489.616 3.03791e-07 
490.146 3.03839e-07 
490.677 3.03886e-07 
491.207 3.03933e-07 
491.737 3.03981e-07 
492.268 3.04028e-07 
492.798 3.04074e-07 
493.328 3.04121e-07 
493.858 3.04168e-07 
494.389 3.04214e-07 
494.919 3.04261e-07 
495.449 3.04307e-07 
495.979 3.04353e-07 
496.51 3.04399e-07 
497.04 3.04445e-07 
497.57 3.0449e-07 
498.101 3.04536e-07 
498.631 3.04582e-07 
499.161 3.04627e-07 
499.691 3.04673e-07 
500.222 3.04719e-07 
500.752 3.04764e-07 
501.282 3.0481e-07 
501.812 3.04856e-07 
502.343 3.04902e-07 
502.873 3.04949e-07 
503.403 3.04995e-07 
503.934 3.05041e-07 
504.464 3.05088e-07 
504.994 3.05135e-07 
505.524 3.05182e-07 
506.055 3.05229e-07 
506.585 3.05277e-07 
507.115 3.05325e-07 
507.646 3.05372e-07 
508.176 3.0542e-07 
508.706 3.05469e-07 
509.236 3.05517e-07 
509.767 3.05566e-07 
510.297 3.05615e-07 
510.827 3.05664e-07 
511.357 3.05713e-07 
511.888 3.05762e-07 
512.418 3.05811e-07 
512.948 3.0586e-07 
513.479 3.0591e-07 
514.009 3.05959e-07 
514.539 3.06009e-07 
515.069 3.06058e-07 
515.6 3.06107e-07 
516.13 3.06157e-07 
516.66 3.06206e-07 
517.19 3.06255e-07 
517.721 3.06305e-07 
518.251 3.06354e-07 
518.781 3.06403e-07 
519.312 3.06452e-07 
519.842 3.06501e-07 
520.372 3.0655e-07 
520.902 3.06599e-07 
521.433 3.06648e-07 
521.963 3.06697e-07 
522.493 3.06745e-07 
523.023 3.06794e-07 
523.554 3.06842e-07 
524.084 3.06891e-07 
524.614 3.06939e-07 
525.145 3.06988e-07 
525.675 3.07036e-07 
526.205 3.07084e-07 
526.735 3.07133e-07 
527.266 3.07181e-07 
527.796 3.0723e-07 
528.326 3.07279e-07 
528.856 3.07327e-07 
529.387 3.07376e-07 
529.917 3.07425e-07 
530.447 3.07474e-07 
530.978 3.07523e-07 
531.508 3.07572e-07 
532.038 3.07622e-07 
532.568 3.07671e-07 
533.099 3.07721e-07 
533.629 3.0777e-07 
534.159 3.0782e-07 
534.689 3.0787e-07 
535.22 3.07921e-07 
535.75 3.07971e-07 
536.28 3.08021e-07 
536.811 3.08072e-07 
537.341 3.08123e-07 
537.871 3.08174e-07 
538.401 3.08225e-07 
538.932 3.08276e-07 
539.462 3.08327e-07 
539.992 3.08378e-07 
540.522 3.0843e-07 
541.053 3.08481e-07 
541.583 3.08533e-07 
542.113 3.08584e-07 
542.644 3.08636e-07 
543.174 3.08688e-07 
543.704 3.08739e-07 
544.234 3.08791e-07 
544.765 3.08843e-07 
545.295 3.08894e-07 
545.825 3.08946e-07 
546.355 3.08998e-07 
546.886 3.0905e-07 
547.416 3.09101e-07 
547.946 3.09153e-07 
548.477 3.09204e-07 
549.007 3.09256e-07 
549.537 3.09307e-07 
550.067 3.09359e-07 
550.598 3.09411e-07 
551.128 3.09462e-07 
551.658 3.09514e-07 
552.188 3.09565e-07 
552.719 3.09617e-07 
553.249 3.09668e-07 
553.779 3.0972e-07 
554.31 3.09771e-07 
554.84 3.09823e-07 
555.37 3.09874e-07 
555.9 3.09926e-07 
556.431 3.09978e-07 
556.961 3.10029e-07 
557.491 3.10081e-07 
558.021 3.10133e-07 
558.552 3.10185e-07 
559.082 3.10237e-07 
559.612 3.10289e-07 
560.143 3.10341e-07 
560.673 3.10393e-07 
561.203 3.10446e-07 
561.733 3.10498e-07 
562.264 3.1055e-07 
562.794 3.10603e-07 
563.324 3.10656e-07 
563.854 3.10709e-07 
564.385 3.10762e-07 
564.915 3.10815e-07 
565.445 3.10868e-07 
565.976 3.10921e-07 
566.506 3.10975e-07 
567.036 3.11028e-07 
567.566 3.11082e-07 
568.097 3.11136e-07 
568.627 3.11189e-07 
569.157 3.11243e-07 
569.688 3.11297e-07 
570.218 3.11351e-07 
570.748 3.11406e-07 
571.278 3.1146e-07 
571.809 3.11514e-07 
572.339 3.11568e-07 
572.869 3.11623e-07 
573.399 3.11677e-07 
573.93 3.11732e-07 
574.46 3.11786e-07 
574.99 3.11841e-07 
575.521 3.11896e-07 
576.051 3.1195e-07 
576.581 3.12005e-07 
577.111 3.12059e-07 
577.642 3.12114e-07 
578.172 3.12169e-07 
578.702 3.12224e-07 
579.232 3.12278e-07 
579.763 3.12333e-07 
580.293 3.12388e-07 
580.823 3.12443e-07 
581.354 3.12497e-07 
581.884 3.12552e-07 
582.414 3.12607e-07 
582.944 3.12662e-07 
583.475 3.12717e-07 
584.005 3.12772e-07 
584.535 3.12827e-07 
585.065 3.12882e-07 
585.596 3.12937e-07 
586.126 3.12992e-07 
586.656 3.13047e-07 
587.187 3.13102e-07 
587.717 3.13157e-07 
588.247 3.13213e-07 
588.777 3.13268e-07 
589.308 3.13323e-07 
589.838 3.13379e-07 
590.368 3.13435e-07 
590.898 3.1349e-07 
591.429 3.13546e-07 
591.959 3.13602e-07 
592.489 3.13657e-07 
593.02 3.13713e-07 
593.55 3.13769e-07 
594.08 3.13826e-07 
594.61 3.13882e-07 
595.141 3.13938e-07 
595.671 3.13995e-07 
596.201 3.14051e-07 
596.731 3.14108e-07 
597.262 3.14164e-07 
597.792 3.14221e-07 
598.322 3.14278e-07 
598.853 3.14335e-07 
599.383 3.14392e-07 
599.913 3.14449e-07 
600.443 3.14506e-07 
600.974 3.14563e-07 
601.504 3.14621e-07 
602.034 3.14678e-07 
602.564 3.14736e-07 
603.095 3.14793e-07 
603.625 3.14851e-07 
604.155 3.14909e-07 
604.686 3.14966e-07 
605.216 3.15025e-07 
605.746 3.15082e-07 
606.276 3.1514e-07 
606.807 3.15198e-07 
607.337 3.15256e-07 
607.867 3.15315e-07 
608.397 3.15373e-07 
608.928 3.15431e-07 
609.458 3.15489e-07 
609.988 3.15548e-07 
610.519 3.15606e-07 
611.049 3.15664e-07 
611.579 3.15723e-07 
612.109 3.15781e-07 
612.64 3.1584e-07 
613.17 3.15898e-07 
613.7 3.15957e-07 
614.23 3.16016e-07 
614.761 3.16074e-07 
615.291 3.16133e-07 
615.821 3.16192e-07 
616.352 3.16251e-07 
616.882 3.1631e-07 
617.412 3.16369e-07 
617.942 3.16428e-07 
618.473 3.16487e-07 
619.003 3.16546e-07 
619.533 3.16605e-07 
620.063 3.16664e-07 
620.594 3.16724e-07 
621.124 3.16783e-07 
621.654 3.16842e-07 
622.185 3.16902e-07 
622.715 3.16961e-07 
623.245 3.17021e-07 
623.775 3.17081e-07 
624.306 3.1714e-07 
624.836 3.172e-07 
625.366 3.1726e-07 
625.896 3.1732e-07 
626.427 3.1738e-07 
626.957 3.17441e-07 
627.487 3.17501e-07 
628.018 3.17561e-07 
628.548 3.17621e-07 
629.078 3.17682e-07 
629.608 3.17743e-07 
630.139 3.17803e-07 
630.669 3.17864e-07 
631.199 3.17925e-07 
631.729 3.17986e-07 
632.26 3.18047e-07 
632.79 3.18108e-07 
633.32 3.18169e-07 
633.851 3.1823e-07 
634.381 3.18292e-07 
634.911 3.18353e-07 
635.441 3.18415e-07 
635.972 3.18476e-07 
636.502 3.18538e-07 
637.032 3.18599e-07 
637.562 3.18661e-07 
638.093 3.18723e-07 
638.623 3.18785e-07 
639.153 3.18847e-07 
639.684 3.18909e-07 
640.214 3.18971e-07 
640.744 3.19034e-07 
641.274 3.19096e-07 
641.805 3.19158e-07 
642.335 3.19221e-07 
642.865 3.19283e-07 
643.396 3.19346e-07 
643.926 3.19408e-07 
644.456 3.19471e-07 
644.986 3.19534e-07 
645.517 3.19597e-07 
646.047 3.1966e-07 
646.577 3.19723e-07 
647.107 3.19786e-07 
647.638 3.19849e-07 
648.168 3.19912e-07 
648.698 3.19975e-07 
649.229 3.20038e-07 
649.759 3.20102e-07 
650.289 3.20165e-07 
650.819 3.20228e-07 
651.35 3.20292e-07 
651.88 3.20356e-07 
652.41 3.20419e-07 
652.94 3.20483e-07 
653.471 3.20547e-07 
654.001 3.20611e-07 
654.531 3.20675e-07 
655.062 3.20739e-07 
655.592 3.20803e-07 
656.122 3.20867e-07 
656.652 3.20931e-07 
657.183 3.20995e-07 
657.713 3.2106e-07 
658.243 3.21124e-07 
658.773 3.21188e-07 
659.304 3.21253e-07 
659.834 3.21318e-07 
660.364 3.21382e-07 
660.895 3.21447e-07 
661.425 3.21512e-07 
661.955 3.21577e-07 
662.485 3.21642e-07 
663.016 3.21707e-07 
663.546 3.21772e-07 
664.076 3.21838e-07 
664.606 3.21903e-07 
665.137 3.21968e-07 
665.667 3.22034e-07 
666.197 3.221e-07 
666.728 3.22166e-07 
667.258 3.22231e-07 
667.788 3.22297e-07 
668.318 3.22363e-07 
668.849 3.22429e-07 
669.379 3.22495e-07 
669.909 3.22562e-07 
670.439 3.22628e-07 
670.97 3.22694e-07 
671.5 3.22761e-07 
672.03 3.22827e-07 
672.561 3.22894e-07 
673.091 3.22961e-07 
673.621 3.23028e-07 
674.151 3.23095e-07 
674.682 3.23162e-07 
675.212 3.23229e-07 
675.742 3.23296e-07 
676.272 3.23363e-07 
676.803 3.23431e-07 
677.333 3.23498e-07 
677.863 3.23566e-07 
678.394 3.23633e-07 
678.924 3.23701e-07 
679.454 3.23769e-07 
679.984 3.23837e-07 
680.515 3.23905e-07 
681.045 3.23973e-07 
681.575 3.24041e-07 
682.105 3.24109e-07 
682.636 3.24177e-07 
683.166 3.24246e-07 
683.696 3.24314e-07 
684.227 3.24383e-07 
684.757 3.24451e-07 
685.287 3.2452e-07 
685.817 3.24589e-07 
686.348 3.24657e-07 
686.878 3.24726e-07 
687.408 3.24795e-07 
687.938 3.24864e-07 
688.469 3.24933e-07 
688.999 3.25002e-07 
689.529 3.25071e-07 
690.06 3.25141e-07 
690.59 3.2521e-07 
691.12 3.2528e-07 
691.65 3.25349e-07 
692.181 3.25418e-07 
692.711 3.25488e-07 
693.241 3.25558e-07 
693.771 3.25628e-07 
694.302 3.25698e-07 
694.832 3.25768e-07 
695.362 3.25838e-07 
695.893 3.25908e-07 
696.423 3.25978e-07 
696.953 3.26048e-07 
697.483 3.26119e-07 
698.014 3.26189e-07 
698.544 3.2626e-07 
699.074 3.26331e-07 
699.604 3.26401e-07 
700.135 3.26472e-07 
700.665 3.26543e-07 
701.195 3.26614e-07 
701.726 3.26685e-07 
702.256 3.26756e-07 
702.786 3.26828e-07 
703.316 3.26899e-07 
703.847 3.26971e-07 
704.377 3.27042e-07 
704.907 3.27114e-07 
705.438 3.27186e-07 
705.968 3.27258e-07 
706.498 3.2733e-07 
707.028 3.27402e-07 
707.559 3.27475e-07 
708.089 3.27547e-07 
708.619 3.27619e-07 
709.149 3.27692e-07 
709.68 3.27764e-07 
710.21 3.27837e-07 
710.74 3.2791e-07 
711.271 3.27983e-07 
711.801 3.28056e-07 
712.331 3.28129e-07 
712.861 3.28203e-07 
713.392 3.28276e-07 
713.922 3.2835e-07 
714.452 3.28423e-07 
714.982 3.28497e-07 
715.513 3.2857e-07 
716.043 3.28644e-07 
716.573 3.28718e-07 
717.104 3.28792e-07 
717.634 3.28866e-07 
718.164 3.2894e-07 
718.694 3.29015e-07 
719.225 3.29089e-07 
719.755 3.29163e-07 
720.285 3.29238e-07 
720.815 3.29312e-07 
721.346 3.29387e-07 
721.876 3.29462e-07 
722.406 3.29537e-07 
722.937 3.29611e-07 
723.467 3.29686e-07 
723.997 3.29761e-07 
724.527 3.29836e-07 
725.058 3.29912e-07 
725.588 3.29987e-07 
726.118 3.30062e-07 
726.648 3.30138e-07 
727.179 3.30213e-07 
727.709 3.30289e-07 
728.239 3.30365e-07 
728.77 3.3044e-07 
729.3 3.30516e-07 
729.83 3.30592e-07 
730.36 3.30668e-07 
730.891 3.30744e-07 
731.421 3.30821e-07 
731.951 3.30897e-07 
732.481 3.30974e-07 
733.012 3.3105e-07 
733.542 3.31127e-07 
734.072 3.31203e-07 
734.603 3.3128e-07 
735.133 3.31357e-07 
735.663 3.31434e-07 
736.193 3.31511e-07 
736.724 3.31589e-07 
737.254 3.31666e-07 
737.784 3.31744e-07 
738.314 3.31821e-07 
738.845 3.31899e-07 
739.375 3.31977e-07 
739.905 3.32055e-07 
740.436 3.32133e-07 
740.966 3.32211e-07 
741.496 3.3229e-07 
742.026 3.32368e-07 
742.557 3.32447e-07 
743.087 3.32525e-07 
743.617 3.32604e-07 
744.147 3.32683e-07 
744.678 3.32762e-07 
745.208 3.32842e-07 
745.738 3.32921e-07 
746.269 3.33e-07 
746.799 3.3308e-07 
747.329 3.33159e-07 
747.859 3.33239e-07 
748.39 3.33319e-07 
748.92 3.33399e-07 
749.45 3.33479e-07 
749.98 3.33559e-07 
750.511 3.33639e-07 
751.041 3.3372e-07 
751.571 3.338e-07 
752.102 3.3388e-07 
752.632 3.33961e-07 
753.162 3.34042e-07 
753.692 3.34122e-07 
754.223 3.34203e-07 
754.753 3.34284e-07 
755.283 3.34365e-07 
755.813 3.34446e-07 
756.344 3.34528e-07 
756.874 3.34609e-07 
757.404 3.3469e-07 
757.935 3.34772e-07 
758.465 3.34853e-07 
758.995 3.34935e-07 
759.525 3.35017e-07 
760.056 3.35098e-07 
760.586 3.3518e-07 
761.116 3.35263e-07 
761.646 3.35345e-07 
762.177 3.35427e-07 
762.707 3.35509e-07 
763.237 3.35592e-07 
763.768 3.35674e-07 
764.298 3.35757e-07 
764.828 3.3584e-07 
765.358 3.35922e-07 
765.889 3.36005e-07 
766.419 3.36089e-07 
766.949 3.36172e-07 
767.479 3.36255e-07 
768.01 3.36339e-07 
768.54 3.36422e-07 
769.07 3.36506e-07 
769.601 3.3659e-07 
770.131 3.36674e-07 
770.661 3.36758e-07 
771.191 3.36842e-07 
771.722 3.36926e-07 
772.252 3.37011e-07 
772.782 3.37095e-07 
773.312 3.3718e-07 
773.843 3.37265e-07 
774.373 3.3735e-07 
774.903 3.37435e-07 
775.434 3.3752e-07 
775.964 3.37606e-07 
776.494 3.37691e-07 
777.024 3.37777e-07 
777.555 3.37863e-07 
778.085 3.37948e-07 
778.615 3.38034e-07 
779.146 3.3812e-07 
779.676 3.38207e-07 
780.206 3.38293e-07 
780.736 3.3838e-07 
781.267 3.38466e-07 
781.797 3.38553e-07 
782.327 3.3864e-07 
782.857 3.38727e-07 
783.388 3.38814e-07 
783.918 3.38901e-07 
784.448 3.38988e-07 
784.979 3.39076e-07 
785.509 3.39163e-07 
786.039 3.39251e-07 
786.569 3.39339e-07 
787.1 3.39426e-07 
787.63 3.39514e-07 
788.16 3.39602e-07 
788.69 3.3969e-07 
789.221 3.39779e-07 
789.751 3.39867e-07 
790.281 3.39956e-07 
790.812 3.40044e-07 
791.342 3.40133e-07 
791.872 3.40222e-07 
792.402 3.4031e-07 
792.933 3.40399e-07 
793.463 3.40488e-07 
793.993 3.40578e-07 
794.523 3.40667e-07 
795.054 3.40756e-07 
795.584 3.40846e-07 
796.114 3.40935e-07 
796.645 3.41025e-07 
797.175 3.41115e-07 
797.705 3.41205e-07 
798.235 3.41295e-07 
798.766 3.41385e-07 
799.296 3.41476e-07 
799.826 3.41566e-07 
800.356 3.41657e-07 
800.887 3.41747e-07 
801.417 3.41838e-07 
801.947 3.41929e-07 
802.478 3.42021e-07 
803.008 3.42112e-07 
803.538 3.42203e-07 
804.068 3.42295e-07 
804.599 3.42387e-07 
805.129 3.42478e-07 
805.659 3.42571e-07 
806.189 3.42663e-07 
806.72 3.42755e-07 
807.25 3.42848e-07 
807.78 3.4294e-07 
808.311 3.43033e-07 
808.841 3.43126e-07 
809.371 3.43219e-07 
809.901 3.43312e-07 
810.432 3.43405e-07 
810.962 3.43499e-07 
811.492 3.43593e-07 
812.022 3.43686e-07 
812.553 3.4378e-07 
813.083 3.43874e-07 
813.613 3.43968e-07 
814.144 3.44063e-07 
814.674 3.44157e-07 
815.204 3.44252e-07 
815.734 3.44346e-07 
816.265 3.44441e-07 
816.795 3.44536e-07 
817.325 3.44631e-07 
817.855 3.44726e-07 
818.386 3.44822e-07 
818.916 3.44917e-07 
819.446 3.45013e-07 
819.977 3.45109e-07 
820.507 3.45204e-07 
821.037 3.453e-07 
821.567 3.45396e-07 
822.098 3.45492e-07 
822.628 3.45588e-07 
823.158 3.45685e-07 
823.688 3.45781e-07 
824.219 3.45878e-07 
824.749 3.45975e-07 
825.279 3.46071e-07 
825.81 3.46168e-07 
826.34 3.46265e-07 
826.87 3.46363e-07 
827.4 3.4646e-07 
827.931 3.46557e-07 
828.461 3.46655e-07 
828.991 3.46753e-07 
829.521 3.46851e-07 
830.052 3.46949e-07 
830.582 3.47047e-07 
831.112 3.47145e-07 
831.643 3.47243e-07 
832.173 3.47342e-07 
832.703 3.47441e-07 
833.233 3.4754e-07 
833.764 3.47639e-07 
834.294 3.47738e-07 
834.824 3.47837e-07 
835.354 3.47937e-07 
835.885 3.48037e-07 
836.415 3.48136e-07 
836.945 3.48236e-07 
837.476 3.48337e-07 
838.006 3.48437e-07 
838.536 3.48537e-07 
839.066 3.48638e-07 
839.597 3.48739e-07 
840.127 3.4884e-07 
840.657 3.48941e-07 
841.188 3.49042e-07 
841.718 3.49144e-07 
842.248 3.49246e-07 
842.778 3.49347e-07 
843.309 3.49449e-07 
843.839 3.49551e-07 
844.369 3.49654e-07 
844.899 3.49756e-07 
845.43 3.49859e-07 
845.96 3.49962e-07 
846.49 3.50065e-07 
847.021 3.50168e-07 
847.551 3.50271e-07 
848.081 3.50374e-07 
848.611 3.50477e-07 
849.142 3.50581e-07 
849.672 3.50685e-07 
850.202 3.50789e-07 
850.732 3.50893e-07 
851.263 3.50997e-07 
851.793 3.51101e-07 
852.323 3.51205e-07 
852.854 3.5131e-07 
853.384 3.51415e-07 
853.914 3.51519e-07 
854.444 3.51624e-07 
854.975 3.51729e-07 
855.505 3.51834e-07 
856.035 3.5194e-07 
856.565 3.52045e-07 
857.096 3.52151e-07 
857.626 3.52256e-07 
858.156 3.52362e-07 
858.687 3.52468e-07 
859.217 3.52575e-07 
859.747 3.52681e-07 
860.277 3.52787e-07 
860.808 3.52894e-07 
861.338 3.53001e-07 
861.868 3.53108e-07 
862.398 3.53215e-07 
862.929 3.53322e-07 
863.459 3.53429e-07 
863.989 3.53537e-07 
864.52 3.53645e-07 
865.05 3.53753e-07 
865.58 3.53861e-07 
866.11 3.53969e-07 
866.641 3.54078e-07 
867.171 3.54186e-07 
867.701 3.54295e-07 
868.231 3.54404e-07 
868.762 3.54514e-07 
869.292 3.54623e-07 
869.822 3.54732e-07 
870.353 3.54843e-07 
870.883 3.54953e-07 
871.413 3.55063e-07 
871.943 3.55173e-07 
872.474 3.55284e-07 
873.004 3.55394e-07 
873.534 3.55506e-07 
874.064 3.55617e-07 
874.595 3.55728e-07 
875.125 3.5584e-07 
875.655 3.55951e-07 
876.186 3.56063e-07 
876.716 3.56175e-07 
877.246 3.56288e-07 
877.776 3.564e-07 
878.307 3.56512e-07 
878.837 3.56625e-07 
879.367 3.56738e-07 
879.897 3.56851e-07 
880.428 3.56965e-07 
880.958 3.57078e-07 
881.488 3.57191e-07 
882.019 3.57305e-07 
882.549 3.57419e-07 
883.079 3.57532e-07 
883.609 3.57646e-07 
884.14 3.57761e-07 
884.67 3.57875e-07 
885.2 3.57989e-07 
885.73 3.58104e-07 
886.261 3.58219e-07 
886.791 3.58333e-07 
887.321 3.58448e-07 
887.852 3.58564e-07 
888.382 3.58679e-07 
888.912 3.58794e-07 
889.442 3.5891e-07 
889.973 3.59026e-07 
890.503 3.59142e-07 
891.033 3.59258e-07 
891.563 3.59374e-07 
892.094 3.59491e-07 
892.624 3.59607e-07 
893.154 3.59724e-07 
893.685 3.59841e-07 
894.215 3.59959e-07 
894.745 3.60076e-07 
895.275 3.60194e-07 
895.806 3.60312e-07 
896.336 3.6043e-07 
896.866 3.60548e-07 
897.396 3.60666e-07 
897.927 3.60785e-07 
898.457 3.60904e-07 
898.987 3.61023e-07 
899.518 3.61143e-07 
900.048 3.61263e-07 
900.578 3.61382e-07 
901.108 3.61503e-07 
901.639 3.61623e-07 
902.169 3.61744e-07 
902.699 3.61864e-07 
903.229 3.61985e-07 
903.76 3.62107e-07 
904.29 3.62228e-07 
904.82 3.6235e-07 
905.351 3.62472e-07 
905.881 3.62594e-07 
906.411 3.62716e-07 
906.941 3.62839e-07 
907.472 3.62962e-07 
908.002 3.63084e-07 
908.532 3.63208e-07 
909.062 3.63331e-07 
