#energy geo_1 
400 3.34255e-07 
400.53 3.3441e-07 
401.061 3.34566e-07 
401.591 3.34723e-07 
402.121 3.3488e-07 
402.651 3.35038e-07 
403.182 3.35197e-07 
403.712 3.35355e-07 
404.242 3.35515e-07 
404.772 3.35675e-07 
405.303 3.35836e-07 
405.833 3.35997e-07 
406.363 3.36159e-07 
406.894 3.36321e-07 
407.424 3.36485e-07 
407.954 3.36648e-07 
408.484 3.36813e-07 
409.015 3.36977e-07 
409.545 3.37143e-07 
410.075 3.37309e-07 
410.605 3.37476e-07 
411.136 3.37644e-07 
411.666 3.37812e-07 
412.196 3.37981e-07 
412.727 3.3815e-07 
413.257 3.3832e-07 
413.787 3.38491e-07 
414.317 3.38663e-07 
414.848 3.38835e-07 
415.378 3.39008e-07 
415.908 3.39181e-07 
416.438 3.39356e-07 
416.969 3.39531e-07 
417.499 3.39706e-07 
418.029 3.39882e-07 
418.56 3.4006e-07 
419.09 3.40237e-07 
419.62 3.40416e-07 
420.15 3.40595e-07 
420.681 3.40775e-07 
421.211 3.40956e-07 
421.741 3.41137e-07 
422.271 3.4132e-07 
422.802 3.41502e-07 
423.332 3.41686e-07 
423.862 3.4187e-07 
424.393 3.42055e-07 
424.923 3.42241e-07 
425.453 3.42428e-07 
425.983 3.42615e-07 
426.514 3.42803e-07 
427.044 3.42992e-07 
427.574 3.43181e-07 
428.104 3.43371e-07 
428.635 3.43562e-07 
429.165 3.43753e-07 
429.695 3.43946e-07 
430.226 3.44139e-07 
430.756 3.44332e-07 
431.286 3.44526e-07 
431.816 3.44721e-07 
432.347 3.44916e-07 
432.877 3.45112e-07 
433.407 3.45308e-07 
433.938 3.45505e-07 
434.468 3.45702e-07 
434.998 3.459e-07 
435.528 3.46098e-07 
436.059 3.46296e-07 
436.589 3.46495e-07 
437.119 3.46694e-07 
437.649 3.46893e-07 
438.18 3.47093e-07 
438.71 3.47292e-07 
439.24 3.47492e-07 
439.771 3.47692e-07 
440.301 3.47891e-07 
440.831 3.4809e-07 
441.361 3.48289e-07 
441.892 3.48488e-07 
442.422 3.48686e-07 
442.952 3.48884e-07 
443.482 3.49081e-07 
444.013 3.49277e-07 
444.543 3.49473e-07 
445.073 3.49668e-07 
445.604 3.49861e-07 
446.134 3.50054e-07 
446.664 3.50246e-07 
447.194 3.50436e-07 
447.725 3.50625e-07 
448.255 3.50812e-07 
448.785 3.50998e-07 
449.315 3.51181e-07 
449.846 3.51364e-07 
450.376 3.51544e-07 
450.906 3.51722e-07 
451.437 3.51898e-07 
451.967 3.52072e-07 
452.497 3.52244e-07 
453.027 3.52414e-07 
453.558 3.52582e-07 
454.088 3.52748e-07 
454.618 3.52912e-07 
455.148 3.53074e-07 
455.679 3.53234e-07 
456.209 3.53393e-07 
456.739 3.5355e-07 
457.27 3.53707e-07 
457.8 3.53864e-07 
458.33 3.54021e-07 
458.86 3.54178e-07 
459.391 3.54338e-07 
459.921 3.54501e-07 
460.451 3.54667e-07 
460.981 3.5484e-07 
461.512 3.5502e-07 
462.042 3.55209e-07 
462.572 3.55411e-07 
463.103 3.55628e-07 
463.633 3.55865e-07 
464.163 3.56124e-07 
464.693 3.56413e-07 
465.224 3.56737e-07 
465.754 3.57106e-07 
466.284 3.57527e-07 
466.814 3.58014e-07 
467.345 3.58582e-07 
467.875 3.59249e-07 
468.405 3.60038e-07 
468.936 3.60979e-07 
469.466 3.6211e-07 
469.996 3.63478e-07 
470.526 3.65145e-07 
471.057 3.67188e-07 
471.587 3.69707e-07 
472.117 3.72832e-07 
472.647 3.76717e-07 
473.178 3.81548e-07 
473.708 3.87518e-07 
474.238 3.94775e-07 
474.769 4.03301e-07 
475.299 4.127e-07 
475.829 4.21937e-07 
476.359 4.29251e-07 
476.89 4.32651e-07 
477.42 4.30999e-07 
477.95 4.24811e-07 
478.48 4.15875e-07 
479.011 4.06137e-07 
479.541 3.9694e-07 
480.071 3.88919e-07 
480.602 3.82223e-07 
481.132 3.76759e-07 
481.662 3.7235e-07 
482.192 3.68812e-07 
482.723 3.65982e-07 
483.253 3.6373e-07 
483.783 3.61954e-07 
484.313 3.6058e-07 
484.844 3.59554e-07 
485.374 3.58841e-07 
485.904 3.58419e-07 
486.435 3.58284e-07 
486.965 3.5844e-07 
487.495 3.58907e-07 
488.025 3.59721e-07 
488.556 3.60929e-07 
489.086 3.62602e-07 
489.616 3.64833e-07 
490.146 3.67747e-07 
490.677 3.71507e-07 
491.207 3.76321e-07 
491.737 3.82459e-07 
492.268 3.9025e-07 
492.798 4.00073e-07 
493.328 4.12309e-07 
493.858 4.27207e-07 
494.389 4.44597e-07 
494.919 4.63423e-07 
495.449 4.8123e-07 
495.979 4.94207e-07 
496.51 4.98509e-07 
497.04 4.92534e-07 
497.57 4.78063e-07 
498.101 4.58975e-07 
498.631 4.39014e-07 
499.161 4.20562e-07 
499.691 4.04636e-07 
500.222 3.91396e-07 
500.752 3.80597e-07 
501.282 3.71868e-07 
501.812 3.64843e-07 
502.343 3.59208e-07 
502.873 3.54712e-07 
503.403 3.51164e-07 
503.934 3.48424e-07 
504.464 3.46393e-07 
504.994 3.45008e-07 
505.524 3.44236e-07 
506.055 3.44071e-07 
506.585 3.44535e-07 
507.115 3.45675e-07 
507.646 3.47571e-07 
508.176 3.50335e-07 
508.706 3.54124e-07 
509.236 3.59146e-07 
509.767 3.65676e-07 
510.297 3.74074e-07 
510.827 3.84801e-07 
511.357 3.98443e-07 
511.888 4.1571e-07 
512.418 4.37405e-07 
512.948 4.64288e-07 
513.479 4.96737e-07 
514.009 5.3407e-07 
514.539 5.73499e-07 
515.069 6.09201e-07 
515.6 6.32899e-07 
516.13 6.37278e-07 
516.66 6.20584e-07 
517.19 5.87862e-07 
517.721 5.47442e-07 
518.251 5.06552e-07 
518.781 4.69425e-07 
519.312 4.37668e-07 
519.842 4.11343e-07 
520.372 3.8983e-07 
520.902 3.72322e-07 
521.433 3.58053e-07 
521.963 3.46364e-07 
522.493 3.36727e-07 
523.023 3.28723e-07 
523.554 3.22023e-07 
524.084 3.16374e-07 
524.614 3.11574e-07 
525.145 3.07469e-07 
525.675 3.03935e-07 
526.205 3.00873e-07 
526.735 2.98206e-07 
527.266 2.9587e-07 
527.796 2.93813e-07 
528.326 2.91995e-07 
528.856 2.9038e-07 
529.387 2.88941e-07 
529.917 2.87653e-07 
530.447 2.86496e-07 
530.978 2.85455e-07 
531.508 2.84514e-07 
532.038 2.83662e-07 
532.568 2.82889e-07 
533.099 2.82185e-07 
533.629 2.81543e-07 
534.159 2.80957e-07 
534.689 2.8042e-07 
535.22 2.79927e-07 
535.75 2.79475e-07 
536.28 2.7906e-07 
536.811 2.78677e-07 
537.341 2.78325e-07 
537.871 2.77999e-07 
538.401 2.77699e-07 
538.932 2.77421e-07 
539.462 2.77165e-07 
539.992 2.76927e-07 
540.522 2.76707e-07 
541.053 2.76504e-07 
541.583 2.76316e-07 
542.113 2.76142e-07 
542.644 2.7598e-07 
543.174 2.75831e-07 
543.704 2.75693e-07 
544.234 2.75566e-07 
544.765 2.75448e-07 
545.295 2.75339e-07 
545.825 2.75239e-07 
546.355 2.75147e-07 
546.886 2.75062e-07 
547.416 2.74984e-07 
547.946 2.74913e-07 
548.477 2.74848e-07 
549.007 2.74789e-07 
549.537 2.74735e-07 
550.067 2.74687e-07 
550.598 2.74643e-07 
551.128 2.74604e-07 
551.658 2.7457e-07 
552.188 2.7454e-07 
552.719 2.74513e-07 
553.249 2.74491e-07 
553.779 2.74472e-07 
554.31 2.74456e-07 
554.84 2.74444e-07 
555.37 2.74435e-07 
555.9 2.74429e-07 
556.431 2.74426e-07 
556.961 2.74425e-07 
557.491 2.74427e-07 
558.021 2.74431e-07 
558.552 2.74438e-07 
559.082 2.74447e-07 
559.612 2.74458e-07 
560.143 2.74471e-07 
560.673 2.74486e-07 
561.203 2.74503e-07 
561.733 2.74522e-07 
562.264 2.74543e-07 
562.794 2.74565e-07 
563.324 2.74589e-07 
563.854 2.74614e-07 
564.385 2.74641e-07 
564.915 2.7467e-07 
565.445 2.747e-07 
565.976 2.74731e-07 
566.506 2.74763e-07 
567.036 2.74797e-07 
567.566 2.74832e-07 
568.097 2.74869e-07 
568.627 2.74906e-07 
569.157 2.74945e-07 
569.688 2.74984e-07 
570.218 2.75025e-07 
570.748 2.75067e-07 
571.278 2.75109e-07 
571.809 2.75153e-07 
572.339 2.75197e-07 
572.869 2.75243e-07 
573.399 2.75289e-07 
573.93 2.75336e-07 
574.46 2.75384e-07 
574.99 2.75433e-07 
575.521 2.75483e-07 
576.051 2.75533e-07 
576.581 2.75584e-07 
577.111 2.75636e-07 
577.642 2.75689e-07 
578.172 2.75742e-07 
578.702 2.75796e-07 
579.232 2.75851e-07 
579.763 2.75906e-07 
580.293 2.75962e-07 
580.823 2.76018e-07 
581.354 2.76075e-07 
581.884 2.76133e-07 
582.414 2.76191e-07 
582.944 2.7625e-07 
583.475 2.76309e-07 
584.005 2.76369e-07 
584.535 2.76429e-07 
585.065 2.7649e-07 
585.596 2.76552e-07 
586.126 2.76614e-07 
586.656 2.76676e-07 
587.187 2.76739e-07 
587.717 2.76802e-07 
588.247 2.76866e-07 
588.777 2.7693e-07 
589.308 2.76995e-07 
589.838 2.7706e-07 
590.368 2.77126e-07 
590.898 2.77192e-07 
591.429 2.77259e-07 
591.959 2.77326e-07 
592.489 2.77393e-07 
593.02 2.77461e-07 
593.55 2.77529e-07 
594.08 2.77597e-07 
594.61 2.77666e-07 
595.141 2.77735e-07 
595.671 2.77805e-07 
596.201 2.77875e-07 
596.731 2.77945e-07 
597.262 2.78016e-07 
597.792 2.78087e-07 
598.322 2.78158e-07 
598.853 2.7823e-07 
599.383 2.78302e-07 
599.913 2.78375e-07 
600.443 2.78448e-07 
600.974 2.78521e-07 
601.504 2.78594e-07 
602.034 2.78668e-07 
602.564 2.78742e-07 
603.095 2.78816e-07 
603.625 2.78891e-07 
604.155 2.78966e-07 
604.686 2.79041e-07 
605.216 2.79117e-07 
605.746 2.79193e-07 
606.276 2.79269e-07 
606.807 2.79346e-07 
607.337 2.79423e-07 
607.867 2.795e-07 
608.397 2.79577e-07 
608.928 2.79655e-07 
609.458 2.79733e-07 
609.988 2.79811e-07 
610.519 2.7989e-07 
611.049 2.79969e-07 
611.579 2.80048e-07 
612.109 2.80127e-07 
612.64 2.80207e-07 
613.17 2.80287e-07 
613.7 2.80367e-07 
614.23 2.80448e-07 
614.761 2.80528e-07 
615.291 2.80609e-07 
615.821 2.8069e-07 
616.352 2.80772e-07 
616.882 2.80854e-07 
617.412 2.80936e-07 
617.942 2.81018e-07 
618.473 2.81101e-07 
619.003 2.81183e-07 
619.533 2.81266e-07 
620.063 2.8135e-07 
620.594 2.81433e-07 
621.124 2.81517e-07 
621.654 2.81601e-07 
622.185 2.81686e-07 
622.715 2.8177e-07 
623.245 2.81855e-07 
623.775 2.8194e-07 
624.306 2.82025e-07 
624.836 2.82111e-07 
625.366 2.82197e-07 
625.896 2.82283e-07 
626.427 2.82369e-07 
626.957 2.82455e-07 
627.487 2.82542e-07 
628.018 2.82629e-07 
628.548 2.82716e-07 
629.078 2.82804e-07 
629.608 2.82892e-07 
630.139 2.8298e-07 
630.669 2.83068e-07 
631.199 2.83156e-07 
631.729 2.83245e-07 
632.26 2.83334e-07 
632.79 2.83423e-07 
633.32 2.83512e-07 
633.851 2.83602e-07 
634.381 2.83692e-07 
634.911 2.83782e-07 
635.441 2.83872e-07 
635.972 2.83963e-07 
636.502 2.84053e-07 
637.032 2.84144e-07 
637.562 2.84235e-07 
638.093 2.84327e-07 
638.623 2.84419e-07 
639.153 2.8451e-07 
639.684 2.84603e-07 
640.214 2.84695e-07 
640.744 2.84788e-07 
641.274 2.84881e-07 
641.805 2.84974e-07 
642.335 2.85067e-07 
642.865 2.8516e-07 
643.396 2.85254e-07 
643.926 2.85348e-07 
644.456 2.85442e-07 
644.986 2.85537e-07 
645.517 2.85631e-07 
646.047 2.85726e-07 
646.577 2.85821e-07 
647.107 2.85917e-07 
647.638 2.86012e-07 
648.168 2.86108e-07 
648.698 2.86204e-07 
649.229 2.86301e-07 
649.759 2.86397e-07 
650.289 2.86494e-07 
650.819 2.86591e-07 
651.35 2.86688e-07 
651.88 2.86785e-07 
652.41 2.86883e-07 
652.94 2.86981e-07 
653.471 2.87079e-07 
654.001 2.87177e-07 
654.531 2.87276e-07 
655.062 2.87375e-07 
655.592 2.87474e-07 
656.122 2.87573e-07 
656.652 2.87673e-07 
657.183 2.87772e-07 
657.713 2.87872e-07 
658.243 2.87973e-07 
658.773 2.88073e-07 
659.304 2.88174e-07 
659.834 2.88275e-07 
660.364 2.88376e-07 
660.895 2.88477e-07 
661.425 2.88579e-07 
661.955 2.88681e-07 
662.485 2.88783e-07 
663.016 2.88885e-07 
663.546 2.88988e-07 
664.076 2.89091e-07 
664.606 2.89194e-07 
665.137 2.89297e-07 
665.667 2.894e-07 
666.197 2.89504e-07 
666.728 2.89608e-07 
667.258 2.89712e-07 
667.788 2.89817e-07 
668.318 2.89922e-07 
668.849 2.90026e-07 
669.379 2.90132e-07 
669.909 2.90237e-07 
670.439 2.90343e-07 
670.97 2.90449e-07 
671.5 2.90555e-07 
672.03 2.90661e-07 
672.561 2.90768e-07 
673.091 2.90875e-07 
673.621 2.90982e-07 
674.151 2.91089e-07 
674.682 2.91197e-07 
675.212 2.91305e-07 
675.742 2.91413e-07 
676.272 2.91521e-07 
676.803 2.9163e-07 
677.333 2.91739e-07 
677.863 2.91848e-07 
678.394 2.91957e-07 
678.924 2.92067e-07 
679.454 2.92176e-07 
679.984 2.92287e-07 
680.515 2.92397e-07 
681.045 2.92508e-07 
681.575 2.92619e-07 
682.105 2.9273e-07 
682.636 2.92841e-07 
683.166 2.92953e-07 
683.696 2.93065e-07 
684.227 2.93177e-07 
684.757 2.93289e-07 
685.287 2.93402e-07 
685.817 2.93515e-07 
686.348 2.93628e-07 
686.878 2.93741e-07 
687.408 2.93855e-07 
687.938 2.93969e-07 
688.469 2.94083e-07 
688.999 2.94198e-07 
689.529 2.94312e-07 
690.06 2.94428e-07 
690.59 2.94543e-07 
691.12 2.94658e-07 
691.65 2.94774e-07 
692.181 2.9489e-07 
692.711 2.95006e-07 
693.241 2.95123e-07 
693.771 2.9524e-07 
694.302 2.95357e-07 
694.832 2.95475e-07 
695.362 2.95592e-07 
695.893 2.9571e-07 
696.423 2.95828e-07 
696.953 2.95947e-07 
697.483 2.96066e-07 
698.014 2.96185e-07 
698.544 2.96304e-07 
699.074 2.96424e-07 
699.604 2.96544e-07 
700.135 2.96664e-07 
700.665 2.96784e-07 
701.195 2.96905e-07 
701.726 2.97026e-07 
702.256 2.97147e-07 
702.786 2.97269e-07 
703.316 2.97391e-07 
703.847 2.97513e-07 
704.377 2.97635e-07 
704.907 2.97758e-07 
705.438 2.97881e-07 
705.968 2.98004e-07 
706.498 2.98128e-07 
707.028 2.98252e-07 
707.559 2.98376e-07 
708.089 2.985e-07 
708.619 2.98625e-07 
709.149 2.9875e-07 
709.68 2.98876e-07 
710.21 2.99001e-07 
710.74 2.99127e-07 
711.271 2.99254e-07 
711.801 2.9938e-07 
712.331 2.99507e-07 
712.861 2.99634e-07 
713.392 2.99762e-07 
713.922 2.99889e-07 
714.452 3.00018e-07 
714.982 3.00146e-07 
715.513 3.00275e-07 
716.043 3.00404e-07 
716.573 3.00533e-07 
717.104 3.00662e-07 
717.634 3.00792e-07 
718.164 3.00923e-07 
718.694 3.01053e-07 
719.225 3.01184e-07 
719.755 3.01315e-07 
720.285 3.01447e-07 
720.815 3.01579e-07 
721.346 3.01711e-07 
721.876 3.01843e-07 
722.406 3.01976e-07 
722.937 3.02109e-07 
723.467 3.02242e-07 
723.997 3.02376e-07 
724.527 3.0251e-07 
725.058 3.02645e-07 
725.588 3.02779e-07 
726.118 3.02915e-07 
726.648 3.0305e-07 
727.179 3.03186e-07 
727.709 3.03322e-07 
728.239 3.03458e-07 
728.77 3.03595e-07 
729.3 3.03732e-07 
729.83 3.0387e-07 
730.36 3.04007e-07 
730.891 3.04145e-07 
731.421 3.04284e-07 
731.951 3.04423e-07 
732.481 3.04562e-07 
733.012 3.04701e-07 
733.542 3.04841e-07 
734.072 3.04981e-07 
734.603 3.05122e-07 
735.133 3.05263e-07 
735.663 3.05404e-07 
736.193 3.05546e-07 
736.724 3.05688e-07 
737.254 3.0583e-07 
737.784 3.05973e-07 
738.314 3.06116e-07 
738.845 3.06259e-07 
739.375 3.06403e-07 
739.905 3.06547e-07 
740.436 3.06692e-07 
740.966 3.06836e-07 
741.496 3.06982e-07 
742.026 3.07128e-07 
742.557 3.07273e-07 
743.087 3.0742e-07 
743.617 3.07566e-07 
744.147 3.07714e-07 
744.678 3.07861e-07 
745.208 3.08009e-07 
745.738 3.08157e-07 
746.269 3.08306e-07 
746.799 3.08455e-07 
747.329 3.08604e-07 
747.859 3.08754e-07 
748.39 3.08904e-07 
748.92 3.09055e-07 
749.45 3.09206e-07 
749.98 3.09357e-07 
750.511 3.09509e-07 
751.041 3.09662e-07 
751.571 3.09814e-07 
752.102 3.09967e-07 
752.632 3.10121e-07 
753.162 3.10274e-07 
753.692 3.10429e-07 
754.223 3.10583e-07 
754.753 3.10738e-07 
755.283 3.10894e-07 
755.813 3.1105e-07 
756.344 3.11206e-07 
756.874 3.11363e-07 
757.404 3.1152e-07 
757.935 3.11677e-07 
758.465 3.11835e-07 
758.995 3.11994e-07 
759.525 3.12153e-07 
760.056 3.12312e-07 
760.586 3.12472e-07 
761.116 3.12632e-07 
761.646 3.12792e-07 
762.177 3.12953e-07 
762.707 3.13115e-07 
763.237 3.13277e-07 
763.768 3.13439e-07 
764.298 3.13602e-07 
764.828 3.13765e-07 
765.358 3.13929e-07 
765.889 3.14093e-07 
766.419 3.14257e-07 
766.949 3.14422e-07 
767.479 3.14588e-07 
768.01 3.14754e-07 
768.54 3.14921e-07 
769.07 3.15087e-07 
769.601 3.15255e-07 
770.131 3.15423e-07 
770.661 3.15591e-07 
771.191 3.1576e-07 
771.722 3.15929e-07 
772.252 3.16099e-07 
772.782 3.16269e-07 
773.312 3.1644e-07 
773.843 3.16611e-07 
774.373 3.16783e-07 
774.903 3.16955e-07 
775.434 3.17128e-07 
775.964 3.17301e-07 
776.494 3.17475e-07 
777.024 3.17649e-07 
777.555 3.17823e-07 
778.085 3.17999e-07 
778.615 3.18174e-07 
779.146 3.1835e-07 
779.676 3.18527e-07 
780.206 3.18704e-07 
780.736 3.18882e-07 
781.267 3.1906e-07 
781.797 3.19239e-07 
782.327 3.19418e-07 
782.857 3.19598e-07 
783.388 3.19778e-07 
783.918 3.19959e-07 
784.448 3.20141e-07 
784.979 3.20323e-07 
785.509 3.20505e-07 
786.039 3.20688e-07 
786.569 3.20872e-07 
787.1 3.21056e-07 
787.63 3.21241e-07 
788.16 3.21426e-07 
788.69 3.21612e-07 
789.221 3.21799e-07 
789.751 3.21986e-07 
790.281 3.22173e-07 
790.812 3.22362e-07 
791.342 3.2255e-07 
791.872 3.22739e-07 
792.402 3.22929e-07 
792.933 3.2312e-07 
793.463 3.23311e-07 
793.993 3.23502e-07 
794.523 3.23695e-07 
795.054 3.23887e-07 
795.584 3.24081e-07 
796.114 3.24275e-07 
796.645 3.24469e-07 
797.175 3.24665e-07 
797.705 3.2486e-07 
798.235 3.25057e-07 
798.766 3.25254e-07 
799.296 3.25452e-07 
799.826 3.2565e-07 
800.356 3.25849e-07 
800.887 3.26048e-07 
801.417 3.26248e-07 
801.947 3.26449e-07 
802.478 3.26651e-07 
803.008 3.26853e-07 
803.538 3.27056e-07 
804.068 3.2726e-07 
804.599 3.27464e-07 
805.129 3.27668e-07 
805.659 3.27874e-07 
806.189 3.2808e-07 
806.72 3.28287e-07 
807.25 3.28494e-07 
807.78 3.28702e-07 
808.311 3.28911e-07 
808.841 3.29121e-07 
809.371 3.29331e-07 
809.901 3.29542e-07 
810.432 3.29754e-07 
810.962 3.29966e-07 
811.492 3.30179e-07 
812.022 3.30393e-07 
812.553 3.30607e-07 
813.083 3.30822e-07 
813.613 3.31038e-07 
814.144 3.31255e-07 
814.674 3.31472e-07 
815.204 3.31691e-07 
815.734 3.31909e-07 
816.265 3.32129e-07 
816.795 3.32349e-07 
817.325 3.3257e-07 
817.855 3.32792e-07 
818.386 3.33015e-07 
818.916 3.33238e-07 
819.446 3.33463e-07 
819.977 3.33688e-07 
820.507 3.33914e-07 
821.037 3.3414e-07 
821.567 3.34368e-07 
822.098 3.34596e-07 
822.628 3.34825e-07 
823.158 3.35055e-07 
823.688 3.35286e-07 
824.219 3.35517e-07 
824.749 3.35749e-07 
825.279 3.35982e-07 
825.81 3.36216e-07 
826.34 3.36451e-07 
826.87 3.36687e-07 
827.4 3.36923e-07 
827.931 3.37161e-07 
828.461 3.37399e-07 
828.991 3.37638e-07 
829.521 3.37878e-07 
830.052 3.38119e-07 
830.582 3.38361e-07 
831.112 3.38604e-07 
831.643 3.38847e-07 
832.173 3.39092e-07 
832.703 3.39338e-07 
833.233 3.39584e-07 
833.764 3.39831e-07 
834.294 3.40079e-07 
834.824 3.40329e-07 
835.354 3.40579e-07 
835.885 3.4083e-07 
836.415 3.41082e-07 
836.945 3.41335e-07 
837.476 3.41589e-07 
838.006 3.41844e-07 
838.536 3.421e-07 
839.066 3.42357e-07 
839.597 3.42615e-07 
840.127 3.42874e-07 
840.657 3.43134e-07 
841.188 3.43395e-07 
841.718 3.43657e-07 
842.248 3.43921e-07 
842.778 3.44185e-07 
843.309 3.4445e-07 
843.839 3.44716e-07 
844.369 3.44984e-07 
844.899 3.45252e-07 
845.43 3.45522e-07 
845.96 3.45793e-07 
846.49 3.46065e-07 
847.021 3.46337e-07 
847.551 3.46611e-07 
848.081 3.46887e-07 
848.611 3.47163e-07 
849.142 3.47441e-07 
849.672 3.47719e-07 
850.202 3.47999e-07 
850.732 3.4828e-07 
851.263 3.48563e-07 
851.793 3.48846e-07 
852.323 3.49131e-07 
852.854 3.49416e-07 
853.384 3.49704e-07 
853.914 3.49992e-07 
854.444 3.50282e-07 
854.975 3.50573e-07 
855.505 3.50865e-07 
856.035 3.51158e-07 
856.565 3.51453e-07 
857.096 3.51749e-07 
857.626 3.52047e-07 
858.156 3.52346e-07 
858.687 3.52646e-07 
859.217 3.52947e-07 
859.747 3.5325e-07 
860.277 3.53555e-07 
860.808 3.5386e-07 
861.338 3.54168e-07 
861.868 3.54476e-07 
862.398 3.54786e-07 
862.929 3.55098e-07 
863.459 3.55411e-07 
863.989 3.55726e-07 
864.52 3.56042e-07 
865.05 3.56359e-07 
865.58 3.56678e-07 
866.11 3.56999e-07 
866.641 3.57321e-07 
867.171 3.57645e-07 
867.701 3.57971e-07 
868.231 3.58298e-07 
868.762 3.58627e-07 
869.292 3.58958e-07 
869.822 3.5929e-07 
870.353 3.59624e-07 
870.883 3.59959e-07 
871.413 3.60297e-07 
871.943 3.60636e-07 
872.474 3.60977e-07 
873.004 3.6132e-07 
873.534 3.61665e-07 
874.064 3.62012e-07 
874.595 3.6236e-07 
875.125 3.6271e-07 
875.655 3.63063e-07 
876.186 3.63417e-07 
876.716 3.63774e-07 
877.246 3.64132e-07 
877.776 3.64493e-07 
878.307 3.64855e-07 
878.837 3.6522e-07 
879.367 3.65586e-07 
879.897 3.65955e-07 
880.428 3.66325e-07 
880.958 3.66699e-07 
881.488 3.67074e-07 
882.019 3.67451e-07 
882.549 3.6783e-07 
883.079 3.68212e-07 
883.609 3.68595e-07 
884.14 3.68981e-07 
884.67 3.6937e-07 
885.2 3.6976e-07 
885.73 3.70152e-07 
886.261 3.70547e-07 
886.791 3.70944e-07 
887.321 3.71343e-07 
887.852 3.71744e-07 
888.382 3.72146e-07 
888.912 3.72552e-07 
889.442 3.72959e-07 
889.973 3.73367e-07 
890.503 3.73778e-07 
891.033 3.74191e-07 
891.563 3.74604e-07 
892.094 3.7502e-07 
892.624 3.75437e-07 
893.154 3.75854e-07 
893.685 3.76274e-07 
894.215 3.76693e-07 
894.745 3.77114e-07 
895.275 3.77535e-07 
895.806 3.77956e-07 
896.336 3.78377e-07 
896.866 3.78798e-07 
897.396 3.79218e-07 
897.927 3.79637e-07 
898.457 3.80055e-07 
898.987 3.80471e-07 
899.518 3.80884e-07 
900.048 3.81294e-07 
900.578 3.81701e-07 
901.108 3.82104e-07 
901.639 3.82502e-07 
902.169 3.82895e-07 
902.699 3.83281e-07 
903.229 3.83661e-07 
903.76 3.84033e-07 
904.29 3.84396e-07 
904.82 3.84749e-07 
905.351 3.85092e-07 
905.881 3.85422e-07 
906.411 3.85739e-07 
906.941 3.86042e-07 
907.472 3.86329e-07 
908.002 3.86599e-07 
908.532 3.86849e-07 
909.062 3.87079e-07 
