#energy geo_1 
400 4.20452e-07 
400.53 4.20657e-07 
401.061 4.20863e-07 
401.591 4.21071e-07 
402.121 4.21279e-07 
402.651 4.21489e-07 
403.182 4.21699e-07 
403.712 4.21911e-07 
404.242 4.22123e-07 
404.772 4.22337e-07 
405.303 4.22551e-07 
405.833 4.22767e-07 
406.363 4.22984e-07 
406.894 4.23202e-07 
407.424 4.23421e-07 
407.954 4.23641e-07 
408.484 4.23862e-07 
409.015 4.24084e-07 
409.545 4.24308e-07 
410.075 4.24532e-07 
410.605 4.24758e-07 
411.136 4.24984e-07 
411.666 4.25212e-07 
412.196 4.25441e-07 
412.727 4.25672e-07 
413.257 4.25903e-07 
413.787 4.26136e-07 
414.317 4.2637e-07 
414.848 4.26604e-07 
415.378 4.26841e-07 
415.908 4.27078e-07 
416.438 4.27317e-07 
416.969 4.27557e-07 
417.499 4.27798e-07 
418.029 4.2804e-07 
418.56 4.28284e-07 
419.09 4.28529e-07 
419.62 4.28775e-07 
420.15 4.29023e-07 
420.681 4.29272e-07 
421.211 4.29522e-07 
421.741 4.29773e-07 
422.271 4.30026e-07 
422.802 4.3028e-07 
423.332 4.30535e-07 
423.862 4.30792e-07 
424.393 4.31049e-07 
424.923 4.31309e-07 
425.453 4.3157e-07 
425.983 4.31832e-07 
426.514 4.32095e-07 
427.044 4.32359e-07 
427.574 4.32626e-07 
428.104 4.32893e-07 
428.635 4.33162e-07 
429.165 4.33432e-07 
429.695 4.33703e-07 
430.226 4.33976e-07 
430.756 4.34249e-07 
431.286 4.34525e-07 
431.816 4.34801e-07 
432.347 4.35079e-07 
432.877 4.35358e-07 
433.407 4.35638e-07 
433.938 4.3592e-07 
434.468 4.36202e-07 
434.998 4.36486e-07 
435.528 4.36772e-07 
436.059 4.37057e-07 
436.589 4.37345e-07 
437.119 4.37633e-07 
437.649 4.37922e-07 
438.18 4.38212e-07 
438.71 4.38504e-07 
439.24 4.38796e-07 
439.771 4.39089e-07 
440.301 4.39383e-07 
440.831 4.39677e-07 
441.361 4.39973e-07 
441.892 4.40269e-07 
442.422 4.40565e-07 
442.952 4.40863e-07 
443.482 4.4116e-07 
444.013 4.41458e-07 
444.543 4.41756e-07 
445.073 4.42055e-07 
445.604 4.42354e-07 
446.134 4.42653e-07 
446.664 4.42952e-07 
447.194 4.43251e-07 
447.725 4.4355e-07 
448.255 4.4385e-07 
448.785 4.44148e-07 
449.315 4.44447e-07 
449.846 4.44745e-07 
450.376 4.45043e-07 
450.906 4.4534e-07 
451.437 4.45637e-07 
451.967 4.45934e-07 
452.497 4.46231e-07 
453.027 4.46527e-07 
453.558 4.46823e-07 
454.088 4.47119e-07 
454.618 4.47414e-07 
455.148 4.4771e-07 
455.679 4.48006e-07 
456.209 4.48302e-07 
456.739 4.48599e-07 
457.27 4.48897e-07 
457.8 4.49197e-07 
458.33 4.495e-07 
458.86 4.49805e-07 
459.391 4.50113e-07 
459.921 4.50427e-07 
460.451 4.50746e-07 
460.981 4.51072e-07 
461.512 4.51408e-07 
462.042 4.51754e-07 
462.572 4.52113e-07 
463.103 4.52488e-07 
463.633 4.52883e-07 
464.163 4.53301e-07 
464.693 4.53747e-07 
465.224 4.54227e-07 
465.754 4.54748e-07 
466.284 4.5532e-07 
466.814 4.55952e-07 
467.345 4.56659e-07 
467.875 4.57456e-07 
468.405 4.58365e-07 
468.936 4.59411e-07 
469.466 4.60629e-07 
469.996 4.6206e-07 
470.526 4.6376e-07 
471.057 4.65796e-07 
471.587 4.68261e-07 
472.117 4.71265e-07 
472.647 4.7495e-07 
473.178 4.79479e-07 
473.708 4.85025e-07 
474.238 4.91718e-07 
474.769 4.99543e-07 
475.299 5.08146e-07 
475.829 5.16603e-07 
476.359 5.23346e-07 
476.89 5.26598e-07 
477.42 5.25345e-07 
477.95 5.20047e-07 
478.48 5.12298e-07 
479.011 5.03834e-07 
479.541 4.95853e-07 
480.071 4.88921e-07 
480.602 4.83171e-07 
481.132 4.78522e-07 
481.662 4.74816e-07 
482.192 4.7189e-07 
482.723 4.69598e-07 
483.253 4.67826e-07 
483.783 4.66484e-07 
484.313 4.65504e-07 
484.844 4.64839e-07 
485.374 4.6446e-07 
485.904 4.64348e-07 
486.435 4.64498e-07 
486.965 4.64917e-07 
487.495 4.65624e-07 
488.025 4.66649e-07 
488.556 4.68039e-07 
489.086 4.69859e-07 
489.616 4.72194e-07 
490.146 4.75159e-07 
490.677 4.78903e-07 
491.207 4.8362e-07 
491.737 4.89555e-07 
492.268 4.97011e-07 
492.798 5.06336e-07 
493.328 5.17881e-07 
493.858 5.31872e-07 
494.389 5.48154e-07 
494.919 5.65751e-07 
495.449 5.82411e-07 
495.979 5.94626e-07 
496.51 5.98861e-07 
497.04 5.93643e-07 
497.57 5.80608e-07 
498.101 5.63326e-07 
498.631 5.45239e-07 
499.161 5.28535e-07 
499.691 5.14154e-07 
500.222 5.0224e-07 
500.752 4.92573e-07 
501.282 4.84809e-07 
501.812 4.78614e-07 
502.343 4.73697e-07 
502.873 4.69831e-07 
503.403 4.66837e-07 
503.934 4.64588e-07 
504.464 4.62991e-07 
504.994 4.61989e-07 
505.524 4.6155e-07 
506.055 4.61668e-07 
506.585 4.62363e-07 
507.115 4.63676e-07 
507.646 4.65679e-07 
508.176 4.68473e-07 
508.706 4.72199e-07 
509.236 4.77045e-07 
509.767 4.8326e-07 
510.297 4.91168e-07 
510.827 5.01189e-07 
511.357 5.13849e-07 
511.888 5.29793e-07 
512.418 5.49746e-07 
512.948 5.74395e-07 
513.479 6.04081e-07 
514.009 6.38184e-07 
514.539 6.74173e-07 
515.069 7.06769e-07 
515.6 7.28467e-07 
516.13 7.32634e-07 
516.66 7.17682e-07 
517.19 6.88182e-07 
517.721 6.51689e-07 
518.251 6.14752e-07 
518.781 5.81213e-07 
519.312 5.5253e-07 
519.842 5.2876e-07 
520.372 5.09345e-07 
520.902 4.93553e-07 
521.433 4.8069e-07 
521.963 4.70163e-07 
522.493 4.61491e-07 
523.023 4.54295e-07 
523.554 4.48278e-07 
524.084 4.43211e-07 
524.614 4.38912e-07 
525.145 4.3524e-07 
525.675 4.32084e-07 
526.205 4.29354e-07 
526.735 4.2698e-07 
527.266 4.24905e-07 
527.796 4.23082e-07 
528.326 4.21475e-07 
528.856 4.2005e-07 
529.387 4.18784e-07 
529.917 4.17654e-07 
530.447 4.16642e-07 
530.978 4.15735e-07 
531.508 4.14917e-07 
532.038 4.1418e-07 
532.568 4.13513e-07 
533.099 4.12909e-07 
533.629 4.1236e-07 
534.159 4.11861e-07 
534.689 4.11407e-07 
535.22 4.10993e-07 
535.75 4.10615e-07 
536.28 4.1027e-07 
536.811 4.09954e-07 
537.341 4.09664e-07 
537.871 4.094e-07 
538.401 4.09158e-07 
538.932 4.08936e-07 
539.462 4.08733e-07 
539.992 4.08547e-07 
540.522 4.08378e-07 
541.053 4.08222e-07 
541.583 4.08081e-07 
542.113 4.07951e-07 
542.644 4.07834e-07 
543.174 4.07727e-07 
543.704 4.0763e-07 
544.234 4.07542e-07 
544.765 4.07463e-07 
545.295 4.07392e-07 
545.825 4.07329e-07 
546.355 4.07273e-07 
546.886 4.07224e-07 
547.416 4.0718e-07 
547.946 4.07143e-07 
548.477 4.07111e-07 
549.007 4.07085e-07 
549.537 4.07063e-07 
550.067 4.07046e-07 
550.598 4.07033e-07 
551.128 4.07025e-07 
551.658 4.0702e-07 
552.188 4.07019e-07 
552.719 4.07022e-07 
553.249 4.07028e-07 
553.779 4.07037e-07 
554.31 4.0705e-07 
554.84 4.07065e-07 
555.37 4.07083e-07 
555.9 4.07104e-07 
556.431 4.07127e-07 
556.961 4.07152e-07 
557.491 4.0718e-07 
558.021 4.0721e-07 
558.552 4.07242e-07 
559.082 4.07276e-07 
559.612 4.07312e-07 
560.143 4.0735e-07 
560.673 4.0739e-07 
561.203 4.07431e-07 
561.733 4.07474e-07 
562.264 4.07519e-07 
562.794 4.07565e-07 
563.324 4.07612e-07 
563.854 4.07661e-07 
564.385 4.07712e-07 
564.915 4.07763e-07 
565.445 4.07816e-07 
565.976 4.0787e-07 
566.506 4.07926e-07 
567.036 4.07982e-07 
567.566 4.0804e-07 
568.097 4.08099e-07 
568.627 4.08159e-07 
569.157 4.08219e-07 
569.688 4.08281e-07 
570.218 4.08344e-07 
570.748 4.08407e-07 
571.278 4.08472e-07 
571.809 4.08537e-07 
572.339 4.08603e-07 
572.869 4.0867e-07 
573.399 4.08738e-07 
573.93 4.08807e-07 
574.46 4.08876e-07 
574.99 4.08946e-07 
575.521 4.09017e-07 
576.051 4.09088e-07 
576.581 4.09161e-07 
577.111 4.09234e-07 
577.642 4.09307e-07 
578.172 4.09381e-07 
578.702 4.09456e-07 
579.232 4.09532e-07 
579.763 4.09607e-07 
580.293 4.09684e-07 
580.823 4.09761e-07 
581.354 4.09839e-07 
581.884 4.09917e-07 
582.414 4.09996e-07 
582.944 4.10076e-07 
583.475 4.10156e-07 
584.005 4.10236e-07 
584.535 4.10317e-07 
585.065 4.10398e-07 
585.596 4.1048e-07 
586.126 4.10562e-07 
586.656 4.10645e-07 
587.187 4.10729e-07 
587.717 4.10812e-07 
588.247 4.10897e-07 
588.777 4.10981e-07 
589.308 4.11066e-07 
589.838 4.11151e-07 
590.368 4.11238e-07 
590.898 4.11324e-07 
591.429 4.11411e-07 
591.959 4.11498e-07 
592.489 4.11585e-07 
593.02 4.11673e-07 
593.55 4.11761e-07 
594.08 4.1185e-07 
594.61 4.11939e-07 
595.141 4.12029e-07 
595.671 4.12118e-07 
596.201 4.12209e-07 
596.731 4.12299e-07 
597.262 4.1239e-07 
597.792 4.12481e-07 
598.322 4.12573e-07 
598.853 4.12665e-07 
599.383 4.12757e-07 
599.913 4.1285e-07 
600.443 4.12943e-07 
600.974 4.13036e-07 
601.504 4.13129e-07 
602.034 4.13223e-07 
602.564 4.13318e-07 
603.095 4.13412e-07 
603.625 4.13507e-07 
604.155 4.13603e-07 
604.686 4.13698e-07 
605.216 4.13794e-07 
605.746 4.1389e-07 
606.276 4.13987e-07 
606.807 4.14084e-07 
607.337 4.14181e-07 
607.867 4.14278e-07 
608.397 4.14376e-07 
608.928 4.14474e-07 
609.458 4.14572e-07 
609.988 4.1467e-07 
610.519 4.14769e-07 
611.049 4.14868e-07 
611.579 4.14968e-07 
612.109 4.15067e-07 
612.64 4.15167e-07 
613.17 4.15268e-07 
613.7 4.15368e-07 
614.23 4.15469e-07 
614.761 4.1557e-07 
615.291 4.15671e-07 
615.821 4.15773e-07 
616.352 4.15875e-07 
616.882 4.15977e-07 
617.412 4.1608e-07 
617.942 4.16183e-07 
618.473 4.16285e-07 
619.003 4.16389e-07 
619.533 4.16493e-07 
620.063 4.16596e-07 
620.594 4.16701e-07 
621.124 4.16805e-07 
621.654 4.1691e-07 
622.185 4.17015e-07 
622.715 4.1712e-07 
623.245 4.17225e-07 
623.775 4.17331e-07 
624.306 4.17437e-07 
624.836 4.17543e-07 
625.366 4.1765e-07 
625.896 4.17756e-07 
626.427 4.17864e-07 
626.957 4.17971e-07 
627.487 4.18078e-07 
628.018 4.18186e-07 
628.548 4.18294e-07 
629.078 4.18403e-07 
629.608 4.18511e-07 
630.139 4.1862e-07 
630.669 4.18729e-07 
631.199 4.18838e-07 
631.729 4.18948e-07 
632.26 4.19058e-07 
632.79 4.19168e-07 
633.32 4.19279e-07 
633.851 4.19389e-07 
634.381 4.195e-07 
634.911 4.19611e-07 
635.441 4.19723e-07 
635.972 4.19835e-07 
636.502 4.19947e-07 
637.032 4.20059e-07 
637.562 4.20171e-07 
638.093 4.20284e-07 
638.623 4.20397e-07 
639.153 4.2051e-07 
639.684 4.20624e-07 
640.214 4.20737e-07 
640.744 4.20851e-07 
641.274 4.20965e-07 
641.805 4.2108e-07 
642.335 4.21195e-07 
642.865 4.2131e-07 
643.396 4.21425e-07 
643.926 4.2154e-07 
644.456 4.21656e-07 
644.986 4.21772e-07 
645.517 4.21889e-07 
646.047 4.22005e-07 
646.577 4.22122e-07 
647.107 4.22239e-07 
647.638 4.22357e-07 
648.168 4.22474e-07 
648.698 4.22592e-07 
649.229 4.2271e-07 
649.759 4.22828e-07 
650.289 4.22947e-07 
650.819 4.23066e-07 
651.35 4.23185e-07 
651.88 4.23304e-07 
652.41 4.23424e-07 
652.94 4.23544e-07 
653.471 4.23664e-07 
654.001 4.23784e-07 
654.531 4.23905e-07 
655.062 4.24026e-07 
655.592 4.24147e-07 
656.122 4.24269e-07 
656.652 4.24391e-07 
657.183 4.24513e-07 
657.713 4.24635e-07 
658.243 4.24758e-07 
658.773 4.2488e-07 
659.304 4.25003e-07 
659.834 4.25127e-07 
660.364 4.2525e-07 
660.895 4.25374e-07 
661.425 4.25498e-07 
661.955 4.25622e-07 
662.485 4.25747e-07 
663.016 4.25872e-07 
663.546 4.25997e-07 
664.076 4.26123e-07 
664.606 4.26249e-07 
665.137 4.26375e-07 
665.667 4.26501e-07 
666.197 4.26628e-07 
666.728 4.26754e-07 
667.258 4.26881e-07 
667.788 4.27009e-07 
668.318 4.27137e-07 
668.849 4.27265e-07 
669.379 4.27393e-07 
669.909 4.27521e-07 
670.439 4.2765e-07 
670.97 4.27779e-07 
671.5 4.27908e-07 
672.03 4.28038e-07 
672.561 4.28167e-07 
673.091 4.28298e-07 
673.621 4.28428e-07 
674.151 4.28559e-07 
674.682 4.2869e-07 
675.212 4.28821e-07 
675.742 4.28953e-07 
676.272 4.29084e-07 
676.803 4.29216e-07 
677.333 4.29349e-07 
677.863 4.29481e-07 
678.394 4.29614e-07 
678.924 4.29748e-07 
679.454 4.29881e-07 
679.984 4.30015e-07 
680.515 4.30149e-07 
681.045 4.30284e-07 
681.575 4.30419e-07 
682.105 4.30554e-07 
682.636 4.30689e-07 
683.166 4.30824e-07 
683.696 4.3096e-07 
684.227 4.31096e-07 
684.757 4.31233e-07 
685.287 4.3137e-07 
685.817 4.31507e-07 
686.348 4.31644e-07 
686.878 4.31782e-07 
687.408 4.3192e-07 
687.938 4.32058e-07 
688.469 4.32197e-07 
688.999 4.32336e-07 
689.529 4.32475e-07 
690.06 4.32615e-07 
690.59 4.32754e-07 
691.12 4.32894e-07 
691.65 4.33035e-07 
692.181 4.33176e-07 
692.711 4.33317e-07 
693.241 4.33458e-07 
693.771 4.336e-07 
694.302 4.33742e-07 
694.832 4.33884e-07 
695.362 4.34027e-07 
695.893 4.34169e-07 
696.423 4.34313e-07 
696.953 4.34456e-07 
697.483 4.346e-07 
698.014 4.34745e-07 
698.544 4.34889e-07 
699.074 4.35034e-07 
699.604 4.35179e-07 
700.135 4.35325e-07 
700.665 4.35471e-07 
701.195 4.35617e-07 
701.726 4.35763e-07 
702.256 4.3591e-07 
702.786 4.36058e-07 
703.316 4.36205e-07 
703.847 4.36353e-07 
704.377 4.36501e-07 
704.907 4.36649e-07 
705.438 4.36799e-07 
705.968 4.36948e-07 
706.498 4.37097e-07 
707.028 4.37247e-07 
707.559 4.37398e-07 
708.089 4.37548e-07 
708.619 4.37699e-07 
709.149 4.37851e-07 
709.68 4.38002e-07 
710.21 4.38155e-07 
710.74 4.38307e-07 
711.271 4.38459e-07 
711.801 4.38612e-07 
712.331 4.38766e-07 
712.861 4.3892e-07 
713.392 4.39074e-07 
713.922 4.39228e-07 
714.452 4.39383e-07 
714.982 4.39538e-07 
715.513 4.39694e-07 
716.043 4.3985e-07 
716.573 4.40006e-07 
717.104 4.40163e-07 
717.634 4.4032e-07 
718.164 4.40477e-07 
718.694 4.40635e-07 
719.225 4.40793e-07 
719.755 4.40952e-07 
720.285 4.41111e-07 
720.815 4.4127e-07 
721.346 4.4143e-07 
721.876 4.4159e-07 
722.406 4.41751e-07 
722.937 4.41912e-07 
723.467 4.42073e-07 
723.997 4.42235e-07 
724.527 4.42397e-07 
725.058 4.42559e-07 
725.588 4.42722e-07 
726.118 4.42886e-07 
726.648 4.43049e-07 
727.179 4.43214e-07 
727.709 4.43378e-07 
728.239 4.43543e-07 
728.77 4.43708e-07 
729.3 4.43874e-07 
729.83 4.4404e-07 
730.36 4.44207e-07 
730.891 4.44374e-07 
731.421 4.44541e-07 
731.951 4.44709e-07 
732.481 4.44877e-07 
733.012 4.45046e-07 
733.542 4.45215e-07 
734.072 4.45384e-07 
734.603 4.45555e-07 
735.133 4.45725e-07 
735.663 4.45896e-07 
736.193 4.46067e-07 
736.724 4.46239e-07 
737.254 4.46411e-07 
737.784 4.46583e-07 
738.314 4.46757e-07 
738.845 4.4693e-07 
739.375 4.47104e-07 
739.905 4.47278e-07 
740.436 4.47453e-07 
740.966 4.47629e-07 
741.496 4.47804e-07 
742.026 4.47981e-07 
742.557 4.48157e-07 
743.087 4.48335e-07 
743.617 4.48512e-07 
744.147 4.48691e-07 
744.678 4.48869e-07 
745.208 4.49048e-07 
745.738 4.49228e-07 
746.269 4.49408e-07 
746.799 4.49589e-07 
747.329 4.4977e-07 
747.859 4.49951e-07 
748.39 4.50133e-07 
748.92 4.50315e-07 
749.45 4.50499e-07 
749.98 4.50682e-07 
750.511 4.50866e-07 
751.041 4.51051e-07 
751.571 4.51236e-07 
752.102 4.51421e-07 
752.632 4.51607e-07 
753.162 4.51794e-07 
753.692 4.51981e-07 
754.223 4.52169e-07 
754.753 4.52357e-07 
755.283 4.52545e-07 
755.813 4.52735e-07 
756.344 4.52925e-07 
756.874 4.53115e-07 
757.404 4.53306e-07 
757.935 4.53497e-07 
758.465 4.53689e-07 
758.995 4.53882e-07 
759.525 4.54075e-07 
760.056 4.54269e-07 
760.586 4.54463e-07 
761.116 4.54657e-07 
761.646 4.54853e-07 
762.177 4.55048e-07 
762.707 4.55245e-07 
763.237 4.55442e-07 
763.768 4.55639e-07 
764.298 4.55838e-07 
764.828 4.56036e-07 
765.358 4.56236e-07 
765.889 4.56436e-07 
766.419 4.56637e-07 
766.949 4.56838e-07 
767.479 4.5704e-07 
768.01 4.57242e-07 
768.54 4.57445e-07 
769.07 4.57649e-07 
769.601 4.57853e-07 
770.131 4.58058e-07 
770.661 4.58263e-07 
771.191 4.58469e-07 
771.722 4.58676e-07 
772.252 4.58884e-07 
772.782 4.59092e-07 
773.312 4.593e-07 
773.843 4.5951e-07 
774.373 4.5972e-07 
774.903 4.59931e-07 
775.434 4.60142e-07 
775.964 4.60354e-07 
776.494 4.60566e-07 
777.024 4.6078e-07 
777.555 4.60994e-07 
778.085 4.61209e-07 
778.615 4.61424e-07 
779.146 4.61641e-07 
779.676 4.61857e-07 
780.206 4.62075e-07 
780.736 4.62293e-07 
781.267 4.62512e-07 
781.797 4.62732e-07 
782.327 4.62952e-07 
782.857 4.63173e-07 
783.388 4.63395e-07 
783.918 4.63618e-07 
784.448 4.63841e-07 
784.979 4.64065e-07 
785.509 4.6429e-07 
786.039 4.64515e-07 
786.569 4.64742e-07 
787.1 4.64969e-07 
787.63 4.65197e-07 
788.16 4.65426e-07 
788.69 4.65655e-07 
789.221 4.65886e-07 
789.751 4.66117e-07 
790.281 4.66349e-07 
790.812 4.66581e-07 
791.342 4.66815e-07 
791.872 4.67049e-07 
792.402 4.67284e-07 
792.933 4.6752e-07 
793.463 4.67757e-07 
793.993 4.67994e-07 
794.523 4.68233e-07 
795.054 4.68472e-07 
795.584 4.68712e-07 
796.114 4.68953e-07 
796.645 4.69195e-07 
797.175 4.69438e-07 
797.705 4.69682e-07 
798.235 4.69926e-07 
798.766 4.70171e-07 
799.296 4.70418e-07 
799.826 4.70665e-07 
800.356 4.70914e-07 
800.887 4.71163e-07 
801.417 4.71413e-07 
801.947 4.71663e-07 
802.478 4.71915e-07 
803.008 4.72168e-07 
803.538 4.72422e-07 
804.068 4.72677e-07 
804.599 4.72932e-07 
805.129 4.73189e-07 
805.659 4.73447e-07 
806.189 4.73706e-07 
806.72 4.73965e-07 
807.25 4.74226e-07 
807.78 4.74487e-07 
808.311 4.7475e-07 
808.841 4.75014e-07 
809.371 4.75279e-07 
809.901 4.75545e-07 
810.432 4.75811e-07 
810.962 4.76079e-07 
811.492 4.76348e-07 
812.022 4.76618e-07 
812.553 4.76889e-07 
813.083 4.77161e-07 
813.613 4.77435e-07 
814.144 4.77709e-07 
814.674 4.77985e-07 
815.204 4.78261e-07 
815.734 4.78539e-07 
816.265 4.78818e-07 
816.795 4.79098e-07 
817.325 4.7938e-07 
817.855 4.79662e-07 
818.386 4.79946e-07 
818.916 4.8023e-07 
819.446 4.80516e-07 
819.977 4.80804e-07 
820.507 4.81092e-07 
821.037 4.81382e-07 
821.567 4.81673e-07 
822.098 4.81965e-07 
822.628 4.82258e-07 
823.158 4.82553e-07 
823.688 4.82849e-07 
824.219 4.83146e-07 
824.749 4.83444e-07 
825.279 4.83744e-07 
825.81 4.84045e-07 
826.34 4.84348e-07 
826.87 4.84651e-07 
827.4 4.84957e-07 
827.931 4.85263e-07 
828.461 4.85571e-07 
828.991 4.8588e-07 
829.521 4.86191e-07 
830.052 4.86503e-07 
830.582 4.86817e-07 
831.112 4.87131e-07 
831.643 4.87447e-07 
832.173 4.87765e-07 
832.703 4.88085e-07 
833.233 4.88405e-07 
833.764 4.88727e-07 
834.294 4.89051e-07 
834.824 4.89377e-07 
835.354 4.89703e-07 
835.885 4.90032e-07 
836.415 4.90362e-07 
836.945 4.90693e-07 
837.476 4.91026e-07 
838.006 4.91361e-07 
838.536 4.91697e-07 
839.066 4.92035e-07 
839.597 4.92375e-07 
840.127 4.92716e-07 
840.657 4.93059e-07 
841.188 4.93403e-07 
841.718 4.93749e-07 
842.248 4.94097e-07 
842.778 4.94447e-07 
843.309 4.94798e-07 
843.839 4.95151e-07 
844.369 4.95506e-07 
844.899 4.95863e-07 
845.43 4.96221e-07 
845.96 4.96582e-07 
846.49 4.96944e-07 
847.021 4.97308e-07 
847.551 4.97674e-07 
848.081 4.98042e-07 
848.611 4.98411e-07 
849.142 4.98783e-07 
849.672 4.99157e-07 
850.202 4.99532e-07 
850.732 4.9991e-07 
851.263 5.00289e-07 
851.793 5.00671e-07 
852.323 5.01055e-07 
852.854 5.0144e-07 
853.384 5.01828e-07 
853.914 5.02217e-07 
854.444 5.02609e-07 
854.975 5.03003e-07 
855.505 5.03399e-07 
856.035 5.03798e-07 
856.565 5.04198e-07 
857.096 5.04601e-07 
857.626 5.05006e-07 
858.156 5.05413e-07 
858.687 5.05823e-07 
859.217 5.06234e-07 
859.747 5.06648e-07 
860.277 5.07065e-07 
860.808 5.07484e-07 
861.338 5.07905e-07 
861.868 5.08329e-07 
862.398 5.08755e-07 
862.929 5.09183e-07 
863.459 5.09615e-07 
863.989 5.10048e-07 
864.52 5.10484e-07 
865.05 5.10923e-07 
865.58 5.11364e-07 
866.11 5.11808e-07 
866.641 5.12255e-07 
867.171 5.12704e-07 
867.701 5.13156e-07 
868.231 5.1361e-07 
868.762 5.14068e-07 
869.292 5.14528e-07 
869.822 5.14991e-07 
870.353 5.15457e-07 
870.883 5.15925e-07 
871.413 5.16397e-07 
871.943 5.16871e-07 
872.474 5.17348e-07 
873.004 5.17829e-07 
873.534 5.18312e-07 
874.064 5.18798e-07 
874.595 5.19288e-07 
875.125 5.1978e-07 
875.655 5.20276e-07 
876.186 5.20774e-07 
876.716 5.21276e-07 
877.246 5.21781e-07 
877.776 5.22289e-07 
878.307 5.22801e-07 
878.837 5.23315e-07 
879.367 5.23833e-07 
879.897 5.24354e-07 
880.428 5.24879e-07 
880.958 5.25407e-07 
881.488 5.25938e-07 
882.019 5.26472e-07 
882.549 5.2701e-07 
883.079 5.27552e-07 
883.609 5.28096e-07 
884.14 5.28644e-07 
884.67 5.29196e-07 
885.2 5.29751e-07 
885.73 5.30309e-07 
886.261 5.30871e-07 
886.791 5.31436e-07 
887.321 5.32004e-07 
887.852 5.32576e-07 
888.382 5.33151e-07 
888.912 5.3373e-07 
889.442 5.34311e-07 
889.973 5.34897e-07 
890.503 5.35485e-07 
891.033 5.36076e-07 
891.563 5.36671e-07 
892.094 5.37268e-07 
892.624 5.37868e-07 
893.154 5.38471e-07 
893.685 5.39077e-07 
894.215 5.39686e-07 
894.745 5.40297e-07 
895.275 5.4091e-07 
895.806 5.41526e-07 
896.336 5.42144e-07 
896.866 5.42763e-07 
897.396 5.43385e-07 
897.927 5.44007e-07 
898.457 5.44631e-07 
898.987 5.45256e-07 
899.518 5.45882e-07 
900.048 5.46508e-07 
900.578 5.47134e-07 
901.108 5.4776e-07 
901.639 5.48385e-07 
902.169 5.49009e-07 
902.699 5.49633e-07 
903.229 5.50254e-07 
903.76 5.50873e-07 
904.29 5.51488e-07 
904.82 5.52101e-07 
905.351 5.5271e-07 
905.881 5.53314e-07 
906.411 5.53913e-07 
906.941 5.54505e-07 
907.472 5.55092e-07 
908.002 5.55671e-07 
908.532 5.56242e-07 
909.062 5.56804e-07 
