#energy geo_1 
400 3.93287e-07 
400.53 3.93448e-07 
401.061 3.9361e-07 
401.591 3.93772e-07 
402.121 3.93936e-07 
402.651 3.941e-07 
403.182 3.94266e-07 
403.712 3.94433e-07 
404.242 3.946e-07 
404.772 3.94769e-07 
405.303 3.94938e-07 
405.833 3.95109e-07 
406.363 3.9528e-07 
406.894 3.95453e-07 
407.424 3.95626e-07 
407.954 3.95801e-07 
408.484 3.95976e-07 
409.015 3.96153e-07 
409.545 3.96331e-07 
410.075 3.96509e-07 
410.605 3.96689e-07 
411.136 3.9687e-07 
411.666 3.97052e-07 
412.196 3.97235e-07 
412.727 3.97419e-07 
413.257 3.97605e-07 
413.787 3.97791e-07 
414.317 3.97979e-07 
414.848 3.98167e-07 
415.378 3.98358e-07 
415.908 3.98549e-07 
416.438 3.98741e-07 
416.969 3.98935e-07 
417.499 3.99129e-07 
418.029 3.99325e-07 
418.56 3.99523e-07 
419.09 3.99721e-07 
419.62 3.99921e-07 
420.15 4.00122e-07 
420.681 4.00324e-07 
421.211 4.00528e-07 
421.741 4.00733e-07 
422.271 4.00939e-07 
422.802 4.01146e-07 
423.332 4.01355e-07 
423.862 4.01565e-07 
424.393 4.01776e-07 
424.923 4.01989e-07 
425.453 4.02203e-07 
425.983 4.02418e-07 
426.514 4.02635e-07 
427.044 4.02852e-07 
427.574 4.03072e-07 
428.104 4.03292e-07 
428.635 4.03515e-07 
429.165 4.03738e-07 
429.695 4.03963e-07 
430.226 4.04189e-07 
430.756 4.04416e-07 
431.286 4.04645e-07 
431.816 4.04875e-07 
432.347 4.05106e-07 
432.877 4.05339e-07 
433.407 4.05573e-07 
433.938 4.05809e-07 
434.468 4.06045e-07 
434.998 4.06284e-07 
435.528 4.06523e-07 
436.059 4.06763e-07 
436.589 4.07005e-07 
437.119 4.07248e-07 
437.649 4.07493e-07 
438.18 4.07738e-07 
438.71 4.07984e-07 
439.24 4.08232e-07 
439.771 4.08481e-07 
440.301 4.08731e-07 
440.831 4.08982e-07 
441.361 4.09233e-07 
441.892 4.09486e-07 
442.422 4.0974e-07 
442.952 4.09995e-07 
443.482 4.10251e-07 
444.013 4.10507e-07 
444.543 4.10764e-07 
445.073 4.11022e-07 
445.604 4.11281e-07 
446.134 4.11541e-07 
446.664 4.11801e-07 
447.194 4.12061e-07 
447.725 4.12323e-07 
448.255 4.12584e-07 
448.785 4.12847e-07 
449.315 4.13109e-07 
449.846 4.13373e-07 
450.376 4.13637e-07 
450.906 4.13901e-07 
451.437 4.14166e-07 
451.967 4.14431e-07 
452.497 4.14697e-07 
453.027 4.14963e-07 
453.558 4.1523e-07 
454.088 4.15498e-07 
454.618 4.15767e-07 
455.148 4.16037e-07 
455.679 4.16308e-07 
456.209 4.16581e-07 
456.739 4.16856e-07 
457.27 4.17133e-07 
457.8 4.17412e-07 
458.33 4.17696e-07 
458.86 4.17982e-07 
459.391 4.18274e-07 
459.921 4.18571e-07 
460.451 4.18874e-07 
460.981 4.19186e-07 
461.512 4.19506e-07 
462.042 4.19838e-07 
462.572 4.20183e-07 
463.103 4.20544e-07 
463.633 4.20923e-07 
464.163 4.21324e-07 
464.693 4.21752e-07 
465.224 4.22212e-07 
465.754 4.2271e-07 
466.284 4.23254e-07 
466.814 4.23853e-07 
467.345 4.2452e-07 
467.875 4.25268e-07 
468.405 4.26116e-07 
468.936 4.27088e-07 
469.466 4.28213e-07 
469.996 4.29527e-07 
470.526 4.3108e-07 
471.057 4.32932e-07 
471.587 4.35162e-07 
472.117 4.3787e-07 
472.647 4.4118e-07 
473.178 4.45236e-07 
473.708 4.50189e-07 
474.238 4.56155e-07 
474.769 4.63119e-07 
475.299 4.70771e-07 
475.829 4.78294e-07 
476.359 4.84305e-07 
476.89 4.87238e-07 
477.42 4.86198e-07 
477.95 4.81592e-07 
478.48 4.74824e-07 
479.011 4.67426e-07 
479.541 4.60454e-07 
480.071 4.54408e-07 
480.602 4.49406e-07 
481.132 4.45377e-07 
481.662 4.42181e-07 
482.192 4.39674e-07 
482.723 4.37729e-07 
483.253 4.36245e-07 
483.783 4.35141e-07 
484.313 4.3436e-07 
484.844 4.3386e-07 
485.374 4.33613e-07 
485.904 4.33604e-07 
486.435 4.33828e-07 
486.965 4.34292e-07 
487.495 4.3501e-07 
488.025 4.36012e-07 
488.556 4.37336e-07 
489.086 4.39039e-07 
489.616 4.41196e-07 
490.146 4.43907e-07 
490.677 4.47303e-07 
491.207 4.51552e-07 
491.737 4.56869e-07 
492.268 4.63518e-07 
492.798 4.71804e-07 
493.328 4.82032e-07 
493.858 4.944e-07 
494.389 5.08772e-07 
494.919 5.24295e-07 
495.449 5.38996e-07 
495.979 5.4981e-07 
496.51 5.53645e-07 
497.04 5.49213e-07 
497.57 5.37946e-07 
498.101 5.22962e-07 
498.631 5.07273e-07 
499.161 4.92794e-07 
499.691 4.80345e-07 
500.222 4.70055e-07 
500.752 4.61727e-07 
501.282 4.55066e-07 
501.812 4.49775e-07 
502.343 4.45604e-07 
502.873 4.4235e-07 
503.403 4.39858e-07 
503.934 4.38017e-07 
504.464 4.36744e-07 
504.994 4.35988e-07 
505.524 4.3572e-07 
506.055 4.35933e-07 
506.585 4.36642e-07 
507.115 4.37881e-07 
507.646 4.39709e-07 
508.176 4.42212e-07 
508.706 4.45506e-07 
509.236 4.4975e-07 
509.767 4.55153e-07 
510.297 4.61988e-07 
510.827 4.70608e-07 
511.357 4.81457e-07 
511.888 4.9508e-07 
512.418 5.12086e-07 
512.948 5.33052e-07 
513.479 5.58269e-07 
514.009 5.87209e-07 
514.539 6.17736e-07 
515.069 6.45385e-07 
515.6 6.63824e-07 
516.13 6.6745e-07 
516.66 6.5492e-07 
517.19 6.30097e-07 
517.721 5.99356e-07 
518.251 5.68233e-07 
518.781 5.39969e-07 
519.312 5.15799e-07 
519.842 4.95773e-07 
520.372 4.79416e-07 
520.902 4.66116e-07 
521.433 4.55286e-07 
521.963 4.46424e-07 
522.493 4.39127e-07 
523.023 4.33073e-07 
523.554 4.28014e-07 
524.084 4.23754e-07 
524.614 4.20143e-07 
525.145 4.17059e-07 
525.675 4.14409e-07 
526.205 4.12119e-07 
526.735 4.10128e-07 
527.266 4.08389e-07 
527.796 4.06862e-07 
528.326 4.05516e-07 
528.856 4.04325e-07 
529.387 4.03266e-07 
529.917 4.02322e-07 
530.447 4.01478e-07 
530.978 4.0072e-07 
531.508 4.00039e-07 
532.038 3.99425e-07 
532.568 3.9887e-07 
533.099 3.98368e-07 
533.629 3.97912e-07 
534.159 3.97498e-07 
534.689 3.97122e-07 
535.22 3.96779e-07 
535.75 3.96466e-07 
536.28 3.96181e-07 
536.811 3.9592e-07 
537.341 3.95683e-07 
537.871 3.95465e-07 
538.401 3.95266e-07 
538.932 3.95085e-07 
539.462 3.94919e-07 
539.992 3.94767e-07 
540.522 3.94629e-07 
541.053 3.94503e-07 
541.583 3.94388e-07 
542.113 3.94284e-07 
542.644 3.94189e-07 
543.174 3.94103e-07 
543.704 3.94026e-07 
544.234 3.93956e-07 
544.765 3.93894e-07 
545.295 3.93838e-07 
545.825 3.93789e-07 
546.355 3.93745e-07 
546.886 3.93707e-07 
547.416 3.93675e-07 
547.946 3.93647e-07 
548.477 3.93624e-07 
549.007 3.93605e-07 
549.537 3.9359e-07 
550.067 3.93579e-07 
550.598 3.93572e-07 
551.128 3.93568e-07 
551.658 3.93568e-07 
552.188 3.9357e-07 
552.719 3.93576e-07 
553.249 3.93584e-07 
553.779 3.93595e-07 
554.31 3.93608e-07 
554.84 3.93624e-07 
555.37 3.93642e-07 
555.9 3.93663e-07 
556.431 3.93685e-07 
556.961 3.93709e-07 
557.491 3.93735e-07 
558.021 3.93763e-07 
558.552 3.93793e-07 
559.082 3.93825e-07 
559.612 3.93857e-07 
560.143 3.93892e-07 
560.673 3.93928e-07 
561.203 3.93965e-07 
561.733 3.94004e-07 
562.264 3.94044e-07 
562.794 3.94085e-07 
563.324 3.94128e-07 
563.854 3.94171e-07 
564.385 3.94216e-07 
564.915 3.94262e-07 
565.445 3.94309e-07 
565.976 3.94357e-07 
566.506 3.94406e-07 
567.036 3.94455e-07 
567.566 3.94506e-07 
568.097 3.94557e-07 
568.627 3.9461e-07 
569.157 3.94663e-07 
569.688 3.94717e-07 
570.218 3.94772e-07 
570.748 3.94827e-07 
571.278 3.94884e-07 
571.809 3.9494e-07 
572.339 3.94998e-07 
572.869 3.95056e-07 
573.399 3.95115e-07 
573.93 3.95175e-07 
574.46 3.95235e-07 
574.99 3.95296e-07 
575.521 3.95357e-07 
576.051 3.95419e-07 
576.581 3.95482e-07 
577.111 3.95545e-07 
577.642 3.95608e-07 
578.172 3.95672e-07 
578.702 3.95737e-07 
579.232 3.95802e-07 
579.763 3.95868e-07 
580.293 3.95934e-07 
580.823 3.96e-07 
581.354 3.96067e-07 
581.884 3.96135e-07 
582.414 3.96202e-07 
582.944 3.96271e-07 
583.475 3.96339e-07 
584.005 3.96408e-07 
584.535 3.96478e-07 
585.065 3.96548e-07 
585.596 3.96618e-07 
586.126 3.96689e-07 
586.656 3.9676e-07 
587.187 3.96832e-07 
587.717 3.96904e-07 
588.247 3.96976e-07 
588.777 3.97048e-07 
589.308 3.97121e-07 
589.838 3.97194e-07 
590.368 3.97268e-07 
590.898 3.97341e-07 
591.429 3.97416e-07 
591.959 3.9749e-07 
592.489 3.97565e-07 
593.02 3.9764e-07 
593.55 3.97716e-07 
594.08 3.97791e-07 
594.61 3.97867e-07 
595.141 3.97944e-07 
595.671 3.9802e-07 
596.201 3.98097e-07 
596.731 3.98174e-07 
597.262 3.98252e-07 
597.792 3.98329e-07 
598.322 3.98408e-07 
598.853 3.98486e-07 
599.383 3.98565e-07 
599.913 3.98644e-07 
600.443 3.98723e-07 
600.974 3.98802e-07 
601.504 3.98882e-07 
602.034 3.98962e-07 
602.564 3.99042e-07 
603.095 3.99122e-07 
603.625 3.99203e-07 
604.155 3.99284e-07 
604.686 3.99365e-07 
605.216 3.99447e-07 
605.746 3.99528e-07 
606.276 3.99611e-07 
606.807 3.99693e-07 
607.337 3.99775e-07 
607.867 3.99858e-07 
608.397 3.9994e-07 
608.928 4.00024e-07 
609.458 4.00107e-07 
609.988 4.0019e-07 
610.519 4.00275e-07 
611.049 4.00359e-07 
611.579 4.00443e-07 
612.109 4.00528e-07 
612.64 4.00612e-07 
613.17 4.00697e-07 
613.7 4.00782e-07 
614.23 4.00868e-07 
614.761 4.00953e-07 
615.291 4.01039e-07 
615.821 4.01126e-07 
616.352 4.01212e-07 
616.882 4.01298e-07 
617.412 4.01385e-07 
617.942 4.01472e-07 
618.473 4.01559e-07 
619.003 4.01647e-07 
619.533 4.01734e-07 
620.063 4.01822e-07 
620.594 4.0191e-07 
621.124 4.01998e-07 
621.654 4.02087e-07 
622.185 4.02175e-07 
622.715 4.02264e-07 
623.245 4.02353e-07 
623.775 4.02443e-07 
624.306 4.02533e-07 
624.836 4.02622e-07 
625.366 4.02712e-07 
625.896 4.02802e-07 
626.427 4.02893e-07 
626.957 4.02983e-07 
627.487 4.03074e-07 
628.018 4.03165e-07 
628.548 4.03256e-07 
629.078 4.03348e-07 
629.608 4.03439e-07 
630.139 4.03531e-07 
630.669 4.03623e-07 
631.199 4.03716e-07 
631.729 4.03808e-07 
632.26 4.03901e-07 
632.79 4.03994e-07 
633.32 4.04086e-07 
633.851 4.0418e-07 
634.381 4.04273e-07 
634.911 4.04367e-07 
635.441 4.04461e-07 
635.972 4.04555e-07 
636.502 4.04649e-07 
637.032 4.04743e-07 
637.562 4.04838e-07 
638.093 4.04933e-07 
638.623 4.05028e-07 
639.153 4.05124e-07 
639.684 4.05219e-07 
640.214 4.05315e-07 
640.744 4.05411e-07 
641.274 4.05507e-07 
641.805 4.05603e-07 
642.335 4.057e-07 
642.865 4.05796e-07 
643.396 4.05894e-07 
643.926 4.05991e-07 
644.456 4.06088e-07 
644.986 4.06186e-07 
645.517 4.06283e-07 
646.047 4.06381e-07 
646.577 4.0648e-07 
647.107 4.06578e-07 
647.638 4.06677e-07 
648.168 4.06776e-07 
648.698 4.06875e-07 
649.229 4.06974e-07 
649.759 4.07073e-07 
650.289 4.07173e-07 
650.819 4.07273e-07 
651.35 4.07373e-07 
651.88 4.07473e-07 
652.41 4.07574e-07 
652.94 4.07674e-07 
653.471 4.07776e-07 
654.001 4.07877e-07 
654.531 4.07978e-07 
655.062 4.0808e-07 
655.592 4.08181e-07 
656.122 4.08283e-07 
656.652 4.08385e-07 
657.183 4.08488e-07 
657.713 4.0859e-07 
658.243 4.08693e-07 
658.773 4.08796e-07 
659.304 4.08899e-07 
659.834 4.09003e-07 
660.364 4.09106e-07 
660.895 4.0921e-07 
661.425 4.09314e-07 
661.955 4.09419e-07 
662.485 4.09523e-07 
663.016 4.09628e-07 
663.546 4.09733e-07 
664.076 4.09838e-07 
664.606 4.09943e-07 
665.137 4.10049e-07 
665.667 4.10155e-07 
666.197 4.10261e-07 
666.728 4.10367e-07 
667.258 4.10474e-07 
667.788 4.10581e-07 
668.318 4.10687e-07 
668.849 4.10795e-07 
669.379 4.10902e-07 
669.909 4.11009e-07 
670.439 4.11117e-07 
670.97 4.11225e-07 
671.5 4.11334e-07 
672.03 4.11442e-07 
672.561 4.11551e-07 
673.091 4.1166e-07 
673.621 4.11769e-07 
674.151 4.11879e-07 
674.682 4.11988e-07 
675.212 4.12098e-07 
675.742 4.12208e-07 
676.272 4.12319e-07 
676.803 4.12429e-07 
677.333 4.1254e-07 
677.863 4.12651e-07 
678.394 4.12762e-07 
678.924 4.12874e-07 
679.454 4.12985e-07 
679.984 4.13097e-07 
680.515 4.13209e-07 
681.045 4.13322e-07 
681.575 4.13435e-07 
682.105 4.13547e-07 
682.636 4.13661e-07 
683.166 4.13774e-07 
683.696 4.13887e-07 
684.227 4.14001e-07 
684.757 4.14115e-07 
685.287 4.1423e-07 
685.817 4.14344e-07 
686.348 4.14459e-07 
686.878 4.14574e-07 
687.408 4.14689e-07 
687.938 4.14805e-07 
688.469 4.14921e-07 
688.999 4.15036e-07 
689.529 4.15152e-07 
690.06 4.15269e-07 
690.59 4.15386e-07 
691.12 4.15503e-07 
691.65 4.1562e-07 
692.181 4.15738e-07 
692.711 4.15856e-07 
693.241 4.15974e-07 
693.771 4.16092e-07 
694.302 4.1621e-07 
694.832 4.16329e-07 
695.362 4.16448e-07 
695.893 4.16567e-07 
696.423 4.16687e-07 
696.953 4.16806e-07 
697.483 4.16926e-07 
698.014 4.17047e-07 
698.544 4.17168e-07 
699.074 4.17288e-07 
699.604 4.17409e-07 
700.135 4.17531e-07 
700.665 4.17652e-07 
701.195 4.17774e-07 
701.726 4.17896e-07 
702.256 4.18018e-07 
702.786 4.18141e-07 
703.316 4.18264e-07 
703.847 4.18387e-07 
704.377 4.18511e-07 
704.907 4.18634e-07 
705.438 4.18759e-07 
705.968 4.18883e-07 
706.498 4.19008e-07 
707.028 4.19132e-07 
707.559 4.19257e-07 
708.089 4.19383e-07 
708.619 4.19509e-07 
709.149 4.19635e-07 
709.68 4.19761e-07 
710.21 4.19887e-07 
710.74 4.20014e-07 
711.271 4.20141e-07 
711.801 4.20268e-07 
712.331 4.20396e-07 
712.861 4.20524e-07 
713.392 4.20652e-07 
713.922 4.2078e-07 
714.452 4.20909e-07 
714.982 4.21038e-07 
715.513 4.21167e-07 
716.043 4.21297e-07 
716.573 4.21427e-07 
717.104 4.21557e-07 
717.634 4.21688e-07 
718.164 4.21819e-07 
718.694 4.2195e-07 
719.225 4.22081e-07 
719.755 4.22213e-07 
720.285 4.22345e-07 
720.815 4.22477e-07 
721.346 4.2261e-07 
721.876 4.22742e-07 
722.406 4.22876e-07 
722.937 4.23009e-07 
723.467 4.23143e-07 
723.997 4.23278e-07 
724.527 4.23412e-07 
725.058 4.23547e-07 
725.588 4.23682e-07 
726.118 4.23817e-07 
726.648 4.23953e-07 
727.179 4.24089e-07 
727.709 4.24225e-07 
728.239 4.24362e-07 
728.77 4.24499e-07 
729.3 4.24636e-07 
729.83 4.24774e-07 
730.36 4.24912e-07 
730.891 4.2505e-07 
731.421 4.25189e-07 
731.951 4.25328e-07 
732.481 4.25467e-07 
733.012 4.25607e-07 
733.542 4.25747e-07 
734.072 4.25887e-07 
734.603 4.26028e-07 
735.133 4.26168e-07 
735.663 4.2631e-07 
736.193 4.26451e-07 
736.724 4.26593e-07 
737.254 4.26736e-07 
737.784 4.26878e-07 
738.314 4.27021e-07 
738.845 4.27165e-07 
739.375 4.27308e-07 
739.905 4.27452e-07 
740.436 4.27597e-07 
740.966 4.27741e-07 
741.496 4.27887e-07 
742.026 4.28032e-07 
742.557 4.28178e-07 
743.087 4.28324e-07 
743.617 4.28471e-07 
744.147 4.28617e-07 
744.678 4.28765e-07 
745.208 4.28912e-07 
745.738 4.2906e-07 
746.269 4.29209e-07 
746.799 4.29358e-07 
747.329 4.29507e-07 
747.859 4.29656e-07 
748.39 4.29806e-07 
748.92 4.29956e-07 
749.45 4.30107e-07 
749.98 4.30258e-07 
750.511 4.30409e-07 
751.041 4.30561e-07 
751.571 4.30713e-07 
752.102 4.30866e-07 
752.632 4.31019e-07 
753.162 4.31172e-07 
753.692 4.31326e-07 
754.223 4.3148e-07 
754.753 4.31635e-07 
755.283 4.3179e-07 
755.813 4.31945e-07 
756.344 4.32101e-07 
756.874 4.32257e-07 
757.404 4.32414e-07 
757.935 4.32571e-07 
758.465 4.32728e-07 
758.995 4.32886e-07 
759.525 4.33045e-07 
760.056 4.33203e-07 
760.586 4.33362e-07 
761.116 4.33521e-07 
761.646 4.33681e-07 
762.177 4.33842e-07 
762.707 4.34003e-07 
763.237 4.34164e-07 
763.768 4.34326e-07 
764.298 4.34488e-07 
764.828 4.34651e-07 
765.358 4.34813e-07 
765.889 4.34977e-07 
766.419 4.35141e-07 
766.949 4.35305e-07 
767.479 4.3547e-07 
768.01 4.35635e-07 
768.54 4.35801e-07 
769.07 4.35967e-07 
769.601 4.36134e-07 
770.131 4.36301e-07 
770.661 4.36469e-07 
771.191 4.36636e-07 
771.722 4.36805e-07 
772.252 4.36974e-07 
772.782 4.37144e-07 
773.312 4.37314e-07 
773.843 4.37484e-07 
774.373 4.37655e-07 
774.903 4.37826e-07 
775.434 4.37998e-07 
775.964 4.38171e-07 
776.494 4.38344e-07 
777.024 4.38517e-07 
777.555 4.38691e-07 
778.085 4.38866e-07 
778.615 4.39041e-07 
779.146 4.39216e-07 
779.676 4.39393e-07 
780.206 4.39569e-07 
780.736 4.39746e-07 
781.267 4.39924e-07 
781.797 4.40102e-07 
782.327 4.4028e-07 
782.857 4.40459e-07 
783.388 4.40639e-07 
783.918 4.4082e-07 
784.448 4.41e-07 
784.979 4.41181e-07 
785.509 4.41363e-07 
786.039 4.41546e-07 
786.569 4.41729e-07 
787.1 4.41912e-07 
787.63 4.42097e-07 
788.16 4.42281e-07 
788.69 4.42466e-07 
789.221 4.42652e-07 
789.751 4.42839e-07 
790.281 4.43026e-07 
790.812 4.43213e-07 
791.342 4.43402e-07 
791.872 4.4359e-07 
792.402 4.4378e-07 
792.933 4.4397e-07 
793.463 4.44161e-07 
793.993 4.44352e-07 
794.523 4.44544e-07 
795.054 4.44736e-07 
795.584 4.44929e-07 
796.114 4.45123e-07 
796.645 4.45318e-07 
797.175 4.45513e-07 
797.705 4.45709e-07 
798.235 4.45905e-07 
798.766 4.46102e-07 
799.296 4.46299e-07 
799.826 4.46498e-07 
800.356 4.46697e-07 
800.887 4.46896e-07 
801.417 4.47096e-07 
801.947 4.47297e-07 
802.478 4.47499e-07 
803.008 4.47701e-07 
803.538 4.47905e-07 
804.068 4.48108e-07 
804.599 4.48313e-07 
805.129 4.48518e-07 
805.659 4.48724e-07 
806.189 4.4893e-07 
806.72 4.49137e-07 
807.25 4.49346e-07 
807.78 4.49554e-07 
808.311 4.49764e-07 
808.841 4.49974e-07 
809.371 4.50185e-07 
809.901 4.50397e-07 
810.432 4.5061e-07 
810.962 4.50823e-07 
811.492 4.51037e-07 
812.022 4.51252e-07 
812.553 4.51468e-07 
813.083 4.51684e-07 
813.613 4.51901e-07 
814.144 4.52119e-07 
814.674 4.52338e-07 
815.204 4.52558e-07 
815.734 4.52778e-07 
816.265 4.53e-07 
816.795 4.53222e-07 
817.325 4.53445e-07 
817.855 4.53669e-07 
818.386 4.53894e-07 
818.916 4.54119e-07 
819.446 4.54346e-07 
819.977 4.54573e-07 
820.507 4.54802e-07 
821.037 4.5503e-07 
821.567 4.55261e-07 
822.098 4.55492e-07 
822.628 4.55724e-07 
823.158 4.55956e-07 
823.688 4.5619e-07 
824.219 4.56425e-07 
824.749 4.5666e-07 
825.279 4.56897e-07 
825.81 4.57134e-07 
826.34 4.57373e-07 
826.87 4.57613e-07 
827.4 4.57853e-07 
827.931 4.58094e-07 
828.461 4.58337e-07 
828.991 4.5858e-07 
829.521 4.58825e-07 
830.052 4.59071e-07 
830.582 4.59317e-07 
831.112 4.59565e-07 
831.643 4.59814e-07 
832.173 4.60063e-07 
832.703 4.60314e-07 
833.233 4.60566e-07 
833.764 4.60819e-07 
834.294 4.61073e-07 
834.824 4.61328e-07 
835.354 4.61584e-07 
835.885 4.61842e-07 
836.415 4.62101e-07 
836.945 4.62361e-07 
837.476 4.62622e-07 
838.006 4.62884e-07 
838.536 4.63147e-07 
839.066 4.63412e-07 
839.597 4.63678e-07 
840.127 4.63945e-07 
840.657 4.64213e-07 
841.188 4.64483e-07 
841.718 4.64753e-07 
842.248 4.65025e-07 
842.778 4.65299e-07 
843.309 4.65573e-07 
843.839 4.65849e-07 
844.369 4.66127e-07 
844.899 4.66405e-07 
845.43 4.66685e-07 
845.96 4.66967e-07 
846.49 4.67249e-07 
847.021 4.67533e-07 
847.551 4.67818e-07 
848.081 4.68105e-07 
848.611 4.68394e-07 
849.142 4.68684e-07 
849.672 4.68975e-07 
850.202 4.69268e-07 
850.732 4.69562e-07 
851.263 4.69858e-07 
851.793 4.70155e-07 
852.323 4.70454e-07 
852.854 4.70754e-07 
853.384 4.71056e-07 
853.914 4.71359e-07 
854.444 4.71665e-07 
854.975 4.71971e-07 
855.505 4.7228e-07 
856.035 4.7259e-07 
856.565 4.72902e-07 
857.096 4.73215e-07 
857.626 4.7353e-07 
858.156 4.73847e-07 
858.687 4.74166e-07 
859.217 4.74486e-07 
859.747 4.74808e-07 
860.277 4.75132e-07 
860.808 4.75457e-07 
861.338 4.75785e-07 
861.868 4.76115e-07 
862.398 4.76446e-07 
862.929 4.76779e-07 
863.459 4.77114e-07 
863.989 4.77452e-07 
864.52 4.77791e-07 
865.05 4.78132e-07 
865.58 4.78475e-07 
866.11 4.7882e-07 
866.641 4.79167e-07 
867.171 4.79516e-07 
867.701 4.79867e-07 
868.231 4.80221e-07 
868.762 4.80576e-07 
869.292 4.80934e-07 
869.822 4.81295e-07 
870.353 4.81657e-07 
870.883 4.82021e-07 
871.413 4.82388e-07 
871.943 4.82757e-07 
872.474 4.83128e-07 
873.004 4.83502e-07 
873.534 4.83878e-07 
874.064 4.84256e-07 
874.595 4.84637e-07 
875.125 4.8502e-07 
875.655 4.85406e-07 
876.186 4.85794e-07 
876.716 4.86185e-07 
877.246 4.86578e-07 
877.776 4.86974e-07 
878.307 4.87372e-07 
878.837 4.87773e-07 
879.367 4.88176e-07 
879.897 4.88583e-07 
880.428 4.88991e-07 
880.958 4.89403e-07 
881.488 4.89817e-07 
882.019 4.90234e-07 
882.549 4.90653e-07 
883.079 4.91076e-07 
883.609 4.91501e-07 
884.14 4.91928e-07 
884.67 4.92359e-07 
885.2 4.92792e-07 
885.73 4.93228e-07 
886.261 4.93667e-07 
886.791 4.94109e-07 
887.321 4.94553e-07 
887.852 4.95e-07 
888.382 4.9545e-07 
888.912 4.95902e-07 
889.442 4.96358e-07 
889.973 4.96815e-07 
890.503 4.97276e-07 
891.033 4.97739e-07 
891.563 4.98205e-07 
892.094 4.98673e-07 
892.624 4.99144e-07 
893.154 4.99617e-07 
893.685 5.00092e-07 
894.215 5.00569e-07 
894.745 5.01049e-07 
895.275 5.01531e-07 
895.806 5.02014e-07 
896.336 5.025e-07 
896.866 5.02987e-07 
897.396 5.03476e-07 
897.927 5.03966e-07 
898.457 5.04457e-07 
898.987 5.04949e-07 
899.518 5.05442e-07 
900.048 5.05936e-07 
900.578 5.0643e-07 
901.108 5.06924e-07 
901.639 5.07418e-07 
902.169 5.07911e-07 
902.699 5.08404e-07 
903.229 5.08895e-07 
903.76 5.09386e-07 
904.29 5.09874e-07 
904.82 5.1036e-07 
905.351 5.10843e-07 
905.881 5.11323e-07 
906.411 5.118e-07 
906.941 5.12272e-07 
907.472 5.1274e-07 
908.002 5.13202e-07 
908.532 5.13659e-07 
909.062 5.14108e-07 
