#energy geo_1 
400 6.69204e-07 
400.53 6.69145e-07 
401.061 6.69085e-07 
401.591 6.69024e-07 
402.121 6.68964e-07 
402.651 6.68904e-07 
403.182 6.68843e-07 
403.712 6.68782e-07 
404.242 6.68721e-07 
404.772 6.6866e-07 
405.303 6.68599e-07 
405.833 6.68538e-07 
406.363 6.68477e-07 
406.894 6.68416e-07 
407.424 6.68355e-07 
407.954 6.68293e-07 
408.484 6.68232e-07 
409.015 6.6817e-07 
409.545 6.68109e-07 
410.075 6.68048e-07 
410.605 6.67986e-07 
411.136 6.67924e-07 
411.666 6.67863e-07 
412.196 6.67801e-07 
412.727 6.67739e-07 
413.257 6.67678e-07 
413.787 6.67616e-07 
414.317 6.67555e-07 
414.848 6.67493e-07 
415.378 6.67432e-07 
415.908 6.67371e-07 
416.438 6.67309e-07 
416.969 6.67248e-07 
417.499 6.67187e-07 
418.029 6.67125e-07 
418.56 6.67064e-07 
419.09 6.67003e-07 
419.62 6.66942e-07 
420.15 6.66882e-07 
420.681 6.66821e-07 
421.211 6.66761e-07 
421.741 6.667e-07 
422.271 6.6664e-07 
422.802 6.6658e-07 
423.332 6.6652e-07 
423.862 6.66461e-07 
424.393 6.66401e-07 
424.923 6.66342e-07 
425.453 6.66282e-07 
425.983 6.66223e-07 
426.514 6.66165e-07 
427.044 6.66106e-07 
427.574 6.66047e-07 
428.104 6.65988e-07 
428.635 6.6593e-07 
429.165 6.65872e-07 
429.695 6.65814e-07 
430.226 6.65756e-07 
430.756 6.65698e-07 
431.286 6.65641e-07 
431.816 6.65583e-07 
432.347 6.65525e-07 
432.877 6.65468e-07 
433.407 6.6541e-07 
433.938 6.65352e-07 
434.468 6.65295e-07 
434.998 6.65237e-07 
435.528 6.6518e-07 
436.059 6.65122e-07 
436.589 6.65064e-07 
437.119 6.65006e-07 
437.649 6.64948e-07 
438.18 6.64889e-07 
438.71 6.6483e-07 
439.24 6.6477e-07 
439.771 6.6471e-07 
440.301 6.64649e-07 
440.831 6.64588e-07 
441.361 6.64526e-07 
441.892 6.64463e-07 
442.422 6.64399e-07 
442.952 6.64334e-07 
443.482 6.64268e-07 
444.013 6.642e-07 
444.543 6.64132e-07 
445.073 6.64062e-07 
445.604 6.6399e-07 
446.134 6.63917e-07 
446.664 6.63842e-07 
447.194 6.63766e-07 
447.725 6.63687e-07 
448.255 6.63606e-07 
448.785 6.63523e-07 
449.315 6.63437e-07 
449.846 6.63349e-07 
450.376 6.63258e-07 
450.906 6.63165e-07 
451.437 6.63069e-07 
451.967 6.6297e-07 
452.497 6.62868e-07 
453.027 6.62763e-07 
453.558 6.62655e-07 
454.088 6.62545e-07 
454.618 6.62431e-07 
455.148 6.62315e-07 
455.679 6.62196e-07 
456.209 6.62075e-07 
456.739 6.61951e-07 
457.27 6.61826e-07 
457.8 6.61699e-07 
458.33 6.61572e-07 
458.86 6.61444e-07 
459.391 6.61317e-07 
459.921 6.61193e-07 
460.451 6.61071e-07 
460.981 6.60954e-07 
461.512 6.60844e-07 
462.042 6.60742e-07 
462.572 6.60651e-07 
463.103 6.60575e-07 
463.633 6.60517e-07 
464.163 6.60482e-07 
464.693 6.60476e-07 
465.224 6.60504e-07 
465.754 6.60577e-07 
466.284 6.60702e-07 
466.814 6.60895e-07 
467.345 6.61168e-07 
467.875 6.61542e-07 
468.405 6.62041e-07 
468.936 6.62696e-07 
469.466 6.63544e-07 
469.996 6.64635e-07 
470.526 6.66033e-07 
471.057 6.67817e-07 
471.587 6.70092e-07 
472.117 6.72989e-07 
472.647 6.76669e-07 
473.178 6.81324e-07 
473.708 6.87152e-07 
474.238 6.94305e-07 
474.769 7.02768e-07 
475.299 7.12132e-07 
475.829 7.21329e-07 
476.359 7.28548e-07 
476.89 7.31734e-07 
477.42 7.29716e-07 
477.95 7.23027e-07 
478.48 7.13508e-07 
479.011 7.03163e-07 
479.541 6.93379e-07 
480.071 6.84807e-07 
480.602 6.776e-07 
481.132 6.71664e-07 
481.662 6.66815e-07 
482.192 6.62864e-07 
482.723 6.59644e-07 
483.253 6.57019e-07 
483.783 6.54886e-07 
484.313 6.53168e-07 
484.844 6.5181e-07 
485.374 6.50777e-07 
485.904 6.50049e-07 
486.435 6.4962e-07 
486.965 6.49499e-07 
487.495 6.49708e-07 
488.025 6.50284e-07 
488.556 6.51282e-07 
489.086 6.52779e-07 
489.616 6.54875e-07 
490.146 6.57708e-07 
490.677 6.61453e-07 
491.207 6.66338e-07 
491.737 6.72655e-07 
492.268 6.80761e-07 
492.798 6.91068e-07 
493.328 7.03991e-07 
493.858 7.19798e-07 
494.389 7.38309e-07 
494.919 7.58377e-07 
495.449 7.77347e-07 
495.979 7.91089e-07 
496.51 7.95436e-07 
497.04 7.88652e-07 
497.57 7.72666e-07 
498.101 7.51683e-07 
498.631 7.29759e-07 
499.161 7.09473e-07 
499.691 6.91926e-07 
500.222 6.77291e-07 
500.752 6.65302e-07 
501.282 6.55555e-07 
501.812 6.47654e-07 
502.343 6.41256e-07 
502.873 6.36092e-07 
503.403 6.31953e-07 
503.934 6.28686e-07 
504.464 6.26185e-07 
504.994 6.24381e-07 
505.524 6.23239e-07 
506.055 6.22753e-07 
506.585 6.22946e-07 
507.115 6.23871e-07 
507.646 6.25613e-07 
508.176 6.28296e-07 
508.706 6.3209e-07 
509.236 6.3722e-07 
509.767 6.43987e-07 
510.297 6.5278e-07 
510.827 6.64103e-07 
511.357 6.78591e-07 
511.888 6.97017e-07 
512.418 7.20252e-07 
512.948 7.49124e-07 
513.479 7.84045e-07 
514.009 8.24277e-07 
514.539 8.66801e-07 
515.069 9.053e-07 
515.6 9.30799e-07 
516.13 9.3536e-07 
516.66 9.17084e-07 
517.19 8.81444e-07 
517.721 8.37473e-07 
518.251 7.93011e-07 
518.781 7.52648e-07 
519.312 7.18125e-07 
519.842 6.89505e-07 
520.372 6.66116e-07 
520.902 6.47081e-07 
521.433 6.31565e-07 
521.963 6.18856e-07 
522.493 6.08377e-07 
523.023 5.99673e-07 
523.554 5.92388e-07 
524.084 5.86246e-07 
524.614 5.8103e-07 
525.145 5.76568e-07 
525.675 5.72729e-07 
526.205 5.69404e-07 
526.735 5.66508e-07 
527.266 5.63973e-07 
527.796 5.61744e-07 
528.326 5.59773e-07 
528.856 5.58025e-07 
529.387 5.56468e-07 
529.917 5.55077e-07 
530.447 5.53829e-07 
530.978 5.52706e-07 
531.508 5.51693e-07 
532.038 5.50778e-07 
532.568 5.49948e-07 
533.099 5.49194e-07 
533.629 5.48507e-07 
534.159 5.47882e-07 
534.689 5.4731e-07 
535.22 5.46787e-07 
535.75 5.46309e-07 
536.28 5.4587e-07 
536.811 5.45467e-07 
537.341 5.45096e-07 
537.871 5.44756e-07 
538.401 5.44443e-07 
538.932 5.44156e-07 
539.462 5.4389e-07 
539.992 5.43646e-07 
540.522 5.43422e-07 
541.053 5.43215e-07 
541.583 5.43024e-07 
542.113 5.42849e-07 
542.644 5.42688e-07 
543.174 5.4254e-07 
543.704 5.42405e-07 
544.234 5.4228e-07 
544.765 5.42167e-07 
545.295 5.42063e-07 
545.825 5.41968e-07 
546.355 5.41882e-07 
546.886 5.41804e-07 
547.416 5.41734e-07 
547.946 5.41671e-07 
548.477 5.41614e-07 
549.007 5.41564e-07 
549.537 5.41519e-07 
550.067 5.41481e-07 
550.598 5.41447e-07 
551.128 5.41419e-07 
551.658 5.41395e-07 
552.188 5.41376e-07 
552.719 5.41361e-07 
553.249 5.41349e-07 
553.779 5.41342e-07 
554.31 5.41338e-07 
554.84 5.41338e-07 
555.37 5.41341e-07 
555.9 5.41347e-07 
556.431 5.41356e-07 
556.961 5.41368e-07 
557.491 5.41382e-07 
558.021 5.41399e-07 
558.552 5.41419e-07 
559.082 5.4144e-07 
559.612 5.41463e-07 
560.143 5.41489e-07 
560.673 5.41517e-07 
561.203 5.41547e-07 
561.733 5.41578e-07 
562.264 5.41612e-07 
562.794 5.41646e-07 
563.324 5.41683e-07 
563.854 5.41721e-07 
564.385 5.41761e-07 
564.915 5.41802e-07 
565.445 5.41844e-07 
565.976 5.41887e-07 
566.506 5.41932e-07 
567.036 5.41978e-07 
567.566 5.42025e-07 
568.097 5.42073e-07 
568.627 5.42123e-07 
569.157 5.42172e-07 
569.688 5.42224e-07 
570.218 5.42276e-07 
570.748 5.42329e-07 
571.278 5.42383e-07 
571.809 5.42437e-07 
572.339 5.42492e-07 
572.869 5.42549e-07 
573.399 5.42605e-07 
573.93 5.42663e-07 
574.46 5.42721e-07 
574.99 5.4278e-07 
575.521 5.42839e-07 
576.051 5.42899e-07 
576.581 5.4296e-07 
577.111 5.43021e-07 
577.642 5.43083e-07 
578.172 5.43145e-07 
578.702 5.43208e-07 
579.232 5.43271e-07 
579.763 5.43334e-07 
580.293 5.43398e-07 
580.823 5.43462e-07 
581.354 5.43527e-07 
581.884 5.43592e-07 
582.414 5.43658e-07 
582.944 5.43724e-07 
583.475 5.4379e-07 
584.005 5.43857e-07 
584.535 5.43923e-07 
585.065 5.4399e-07 
585.596 5.44057e-07 
586.126 5.44125e-07 
586.656 5.44193e-07 
587.187 5.4426e-07 
587.717 5.44329e-07 
588.247 5.44397e-07 
588.777 5.44466e-07 
589.308 5.44535e-07 
589.838 5.44604e-07 
590.368 5.44673e-07 
590.898 5.44742e-07 
591.429 5.44812e-07 
591.959 5.44882e-07 
592.489 5.44951e-07 
593.02 5.45021e-07 
593.55 5.45091e-07 
594.08 5.45162e-07 
594.61 5.45232e-07 
595.141 5.45302e-07 
595.671 5.45373e-07 
596.201 5.45443e-07 
596.731 5.45514e-07 
597.262 5.45585e-07 
597.792 5.45655e-07 
598.322 5.45726e-07 
598.853 5.45796e-07 
599.383 5.45867e-07 
599.913 5.45938e-07 
600.443 5.46009e-07 
600.974 5.4608e-07 
601.504 5.46151e-07 
602.034 5.46222e-07 
602.564 5.46292e-07 
603.095 5.46363e-07 
603.625 5.46434e-07 
604.155 5.46505e-07 
604.686 5.46576e-07 
605.216 5.46647e-07 
605.746 5.46718e-07 
606.276 5.46788e-07 
606.807 5.46859e-07 
607.337 5.4693e-07 
607.867 5.47e-07 
608.397 5.47071e-07 
608.928 5.47142e-07 
609.458 5.47212e-07 
609.988 5.47283e-07 
610.519 5.47353e-07 
611.049 5.47423e-07 
611.579 5.47493e-07 
612.109 5.47563e-07 
612.64 5.47634e-07 
613.17 5.47703e-07 
613.7 5.47773e-07 
614.23 5.47843e-07 
614.761 5.47912e-07 
615.291 5.47982e-07 
615.821 5.48051e-07 
616.352 5.4812e-07 
616.882 5.48189e-07 
617.412 5.48258e-07 
617.942 5.48327e-07 
618.473 5.48396e-07 
619.003 5.48465e-07 
619.533 5.48533e-07 
620.063 5.48601e-07 
620.594 5.48669e-07 
621.124 5.48737e-07 
621.654 5.48805e-07 
622.185 5.48873e-07 
622.715 5.48941e-07 
623.245 5.49008e-07 
623.775 5.49075e-07 
624.306 5.49142e-07 
624.836 5.4921e-07 
625.366 5.49276e-07 
625.896 5.49343e-07 
626.427 5.49409e-07 
626.957 5.49475e-07 
627.487 5.49541e-07 
628.018 5.49607e-07 
628.548 5.49673e-07 
629.078 5.49738e-07 
629.608 5.49804e-07 
630.139 5.49869e-07 
630.669 5.49934e-07 
631.199 5.49998e-07 
631.729 5.50063e-07 
632.26 5.50127e-07 
632.79 5.50191e-07 
633.32 5.50255e-07 
633.851 5.50318e-07 
634.381 5.50382e-07 
634.911 5.50445e-07 
635.441 5.50508e-07 
635.972 5.5057e-07 
636.502 5.50633e-07 
637.032 5.50695e-07 
637.562 5.50757e-07 
638.093 5.50819e-07 
638.623 5.50881e-07 
639.153 5.50942e-07 
639.684 5.51003e-07 
640.214 5.51064e-07 
640.744 5.51124e-07 
641.274 5.51184e-07 
641.805 5.51244e-07 
642.335 5.51304e-07 
642.865 5.51363e-07 
643.396 5.51423e-07 
643.926 5.51481e-07 
644.456 5.5154e-07 
644.986 5.51598e-07 
645.517 5.51657e-07 
646.047 5.51715e-07 
646.577 5.51772e-07 
647.107 5.51829e-07 
647.638 5.51886e-07 
648.168 5.51943e-07 
648.698 5.51999e-07 
649.229 5.52055e-07 
649.759 5.52111e-07 
650.289 5.52167e-07 
650.819 5.52222e-07 
651.35 5.52277e-07 
651.88 5.52332e-07 
652.41 5.52386e-07 
652.94 5.5244e-07 
653.471 5.52493e-07 
654.001 5.52547e-07 
654.531 5.526e-07 
655.062 5.52652e-07 
655.592 5.52705e-07 
656.122 5.52757e-07 
656.652 5.52809e-07 
657.183 5.5286e-07 
657.713 5.52911e-07 
658.243 5.52962e-07 
658.773 5.53012e-07 
659.304 5.53062e-07 
659.834 5.53112e-07 
660.364 5.53161e-07 
660.895 5.5321e-07 
661.425 5.53259e-07 
661.955 5.53307e-07 
662.485 5.53355e-07 
663.016 5.53403e-07 
663.546 5.5345e-07 
664.076 5.53497e-07 
664.606 5.53543e-07 
665.137 5.5359e-07 
665.667 5.53635e-07 
666.197 5.53681e-07 
666.728 5.53726e-07 
667.258 5.53771e-07 
667.788 5.53815e-07 
668.318 5.53859e-07 
668.849 5.53902e-07 
669.379 5.53945e-07 
669.909 5.53988e-07 
670.439 5.5403e-07 
670.97 5.54072e-07 
671.5 5.54113e-07 
672.03 5.54154e-07 
672.561 5.54195e-07 
673.091 5.54235e-07 
673.621 5.54275e-07 
674.151 5.54315e-07 
674.682 5.54354e-07 
675.212 5.54392e-07 
675.742 5.5443e-07 
676.272 5.54468e-07 
676.803 5.54506e-07 
677.333 5.54543e-07 
677.863 5.54579e-07 
678.394 5.54615e-07 
678.924 5.54651e-07 
679.454 5.54686e-07 
679.984 5.54721e-07 
680.515 5.54755e-07 
681.045 5.54789e-07 
681.575 5.54823e-07 
682.105 5.54856e-07 
682.636 5.54888e-07 
683.166 5.5492e-07 
683.696 5.54951e-07 
684.227 5.54982e-07 
684.757 5.55013e-07 
685.287 5.55043e-07 
685.817 5.55073e-07 
686.348 5.55102e-07 
686.878 5.55131e-07 
687.408 5.55159e-07 
687.938 5.55187e-07 
688.469 5.55214e-07 
688.999 5.55241e-07 
689.529 5.55267e-07 
690.06 5.55293e-07 
690.59 5.55318e-07 
691.12 5.55343e-07 
691.65 5.55368e-07 
692.181 5.55391e-07 
692.711 5.55415e-07 
693.241 5.55438e-07 
693.771 5.5546e-07 
694.302 5.55482e-07 
694.832 5.55503e-07 
695.362 5.55524e-07 
695.893 5.55544e-07 
696.423 5.55564e-07 
696.953 5.55583e-07 
697.483 5.55602e-07 
698.014 5.5562e-07 
698.544 5.55638e-07 
699.074 5.55655e-07 
699.604 5.55671e-07 
700.135 5.55687e-07 
700.665 5.55703e-07 
701.195 5.55717e-07 
701.726 5.55732e-07 
702.256 5.55745e-07 
702.786 5.55758e-07 
703.316 5.55771e-07 
703.847 5.55783e-07 
704.377 5.55794e-07 
704.907 5.55805e-07 
705.438 5.55815e-07 
705.968 5.55825e-07 
706.498 5.55834e-07 
707.028 5.55842e-07 
707.559 5.5585e-07 
708.089 5.55857e-07 
708.619 5.55864e-07 
709.149 5.5587e-07 
709.68 5.55876e-07 
710.21 5.5588e-07 
710.74 5.55885e-07 
711.271 5.55888e-07 
711.801 5.55891e-07 
712.331 5.55894e-07 
712.861 5.55896e-07 
713.392 5.55897e-07 
713.922 5.55898e-07 
714.452 5.55898e-07 
714.982 5.55897e-07 
715.513 5.55895e-07 
716.043 5.55893e-07 
716.573 5.5589e-07 
717.104 5.55887e-07 
717.634 5.55883e-07 
718.164 5.55879e-07 
718.694 5.55873e-07 
719.225 5.55867e-07 
719.755 5.55861e-07 
720.285 5.55854e-07 
720.815 5.55846e-07 
721.346 5.55837e-07 
721.876 5.55828e-07 
722.406 5.55818e-07 
722.937 5.55807e-07 
723.467 5.55796e-07 
723.997 5.55784e-07 
724.527 5.55771e-07 
725.058 5.55757e-07 
725.588 5.55743e-07 
726.118 5.55728e-07 
726.648 5.55713e-07 
727.179 5.55696e-07 
727.709 5.55679e-07 
728.239 5.55662e-07 
728.77 5.55643e-07 
729.3 5.55624e-07 
729.83 5.55604e-07 
730.36 5.55583e-07 
730.891 5.55562e-07 
731.421 5.5554e-07 
731.951 5.55517e-07 
732.481 5.55493e-07 
733.012 5.55469e-07 
733.542 5.55444e-07 
734.072 5.55418e-07 
734.603 5.55391e-07 
735.133 5.55364e-07 
735.663 5.55335e-07 
736.193 5.55306e-07 
736.724 5.55277e-07 
737.254 5.55246e-07 
737.784 5.55215e-07 
738.314 5.55183e-07 
738.845 5.55149e-07 
739.375 5.55115e-07 
739.905 5.55081e-07 
740.436 5.55045e-07 
740.966 5.55009e-07 
741.496 5.54972e-07 
742.026 5.54934e-07 
742.557 5.54896e-07 
743.087 5.54856e-07 
743.617 5.54816e-07 
744.147 5.54775e-07 
744.678 5.54733e-07 
745.208 5.5469e-07 
745.738 5.54646e-07 
746.269 5.54602e-07 
746.799 5.54556e-07 
747.329 5.5451e-07 
747.859 5.54463e-07 
748.39 5.54415e-07 
748.92 5.54366e-07 
749.45 5.54316e-07 
749.98 5.54266e-07 
750.511 5.54215e-07 
751.041 5.54162e-07 
751.571 5.54109e-07 
752.102 5.54055e-07 
752.632 5.54e-07 
753.162 5.53944e-07 
753.692 5.53886e-07 
754.223 5.53829e-07 
754.753 5.5377e-07 
755.283 5.5371e-07 
755.813 5.5365e-07 
756.344 5.53588e-07 
756.874 5.53526e-07 
757.404 5.53463e-07 
757.935 5.53398e-07 
758.465 5.53333e-07 
758.995 5.53267e-07 
759.525 5.53199e-07 
760.056 5.53131e-07 
760.586 5.53062e-07 
761.116 5.52992e-07 
761.646 5.52921e-07 
762.177 5.52849e-07 
762.707 5.52776e-07 
763.237 5.52702e-07 
763.768 5.52627e-07 
764.298 5.52551e-07 
764.828 5.52474e-07 
765.358 5.52396e-07 
765.889 5.52317e-07 
766.419 5.52237e-07 
766.949 5.52156e-07 
767.479 5.52074e-07 
768.01 5.51991e-07 
768.54 5.51907e-07 
769.07 5.51822e-07 
769.601 5.51736e-07 
770.131 5.51649e-07 
770.661 5.5156e-07 
771.191 5.51471e-07 
771.722 5.51381e-07 
772.252 5.5129e-07 
772.782 5.51197e-07 
773.312 5.51103e-07 
773.843 5.51009e-07 
774.373 5.50913e-07 
774.903 5.50816e-07 
775.434 5.50719e-07 
775.964 5.5062e-07 
776.494 5.5052e-07 
777.024 5.50418e-07 
777.555 5.50316e-07 
778.085 5.50213e-07 
778.615 5.50109e-07 
779.146 5.50003e-07 
779.676 5.49896e-07 
780.206 5.49788e-07 
780.736 5.49679e-07 
781.267 5.49569e-07 
781.797 5.49458e-07 
782.327 5.49345e-07 
782.857 5.49232e-07 
783.388 5.49117e-07 
783.918 5.49001e-07 
784.448 5.48884e-07 
784.979 5.48766e-07 
785.509 5.48646e-07 
786.039 5.48526e-07 
786.569 5.48404e-07 
787.1 5.48281e-07 
787.63 5.48157e-07 
788.16 5.48031e-07 
788.69 5.47905e-07 
789.221 5.47778e-07 
789.751 5.47648e-07 
790.281 5.47519e-07 
790.812 5.47387e-07 
791.342 5.47255e-07 
791.872 5.47121e-07 
792.402 5.46985e-07 
792.933 5.46849e-07 
793.463 5.46711e-07 
793.993 5.46573e-07 
794.523 5.46432e-07 
795.054 5.46291e-07 
795.584 5.46149e-07 
796.114 5.46005e-07 
796.645 5.4586e-07 
797.175 5.45713e-07 
797.705 5.45566e-07 
798.235 5.45417e-07 
798.766 5.45266e-07 
799.296 5.45115e-07 
799.826 5.44962e-07 
800.356 5.44808e-07 
800.887 5.44653e-07 
801.417 5.44495e-07 
801.947 5.44338e-07 
802.478 5.44178e-07 
803.008 5.44017e-07 
803.538 5.43856e-07 
804.068 5.43692e-07 
804.599 5.43528e-07 
805.129 5.43361e-07 
805.659 5.43194e-07 
806.189 5.43026e-07 
806.72 5.42855e-07 
807.25 5.42684e-07 
807.78 5.42511e-07 
808.311 5.42337e-07 
808.841 5.42161e-07 
809.371 5.41984e-07 
809.901 5.41806e-07 
810.432 5.41626e-07 
810.962 5.41445e-07 
811.492 5.41262e-07 
812.022 5.41079e-07 
812.553 5.40893e-07 
813.083 5.40707e-07 
813.613 5.40518e-07 
814.144 5.40329e-07 
814.674 5.40138e-07 
815.204 5.39945e-07 
815.734 5.39751e-07 
816.265 5.39556e-07 
816.795 5.39359e-07 
817.325 5.39161e-07 
817.855 5.38962e-07 
818.386 5.38761e-07 
818.916 5.38558e-07 
819.446 5.38354e-07 
819.977 5.38149e-07 
820.507 5.37942e-07 
821.037 5.37734e-07 
821.567 5.37524e-07 
822.098 5.37313e-07 
822.628 5.371e-07 
823.158 5.36886e-07 
823.688 5.3667e-07 
824.219 5.36453e-07 
824.749 5.36234e-07 
825.279 5.36014e-07 
825.81 5.35792e-07 
826.34 5.35569e-07 
826.87 5.35344e-07 
827.4 5.35118e-07 
827.931 5.34891e-07 
828.461 5.34662e-07 
828.991 5.34431e-07 
829.521 5.34198e-07 
830.052 5.33965e-07 
830.582 5.33729e-07 
831.112 5.33492e-07 
831.643 5.33254e-07 
832.173 5.33014e-07 
832.703 5.32773e-07 
833.233 5.32529e-07 
833.764 5.32285e-07 
834.294 5.32039e-07 
834.824 5.31792e-07 
835.354 5.31543e-07 
835.885 5.31292e-07 
836.415 5.3104e-07 
836.945 5.30786e-07 
837.476 5.30531e-07 
838.006 5.30274e-07 
838.536 5.30015e-07 
839.066 5.29755e-07 
839.597 5.29494e-07 
840.127 5.29231e-07 
840.657 5.28966e-07 
841.188 5.287e-07 
841.718 5.28432e-07 
842.248 5.28162e-07 
842.778 5.27891e-07 
843.309 5.27619e-07 
843.839 5.27345e-07 
844.369 5.2707e-07 
844.899 5.26792e-07 
845.43 5.26513e-07 
845.96 5.26233e-07 
846.49 5.25951e-07 
847.021 5.25667e-07 
847.551 5.25382e-07 
848.081 5.25095e-07 
848.611 5.24807e-07 
849.142 5.24517e-07 
849.672 5.24226e-07 
850.202 5.23933e-07 
850.732 5.23638e-07 
851.263 5.23342e-07 
851.793 5.23044e-07 
852.323 5.22745e-07 
852.854 5.22444e-07 
853.384 5.22142e-07 
853.914 5.21837e-07 
854.444 5.21532e-07 
854.975 5.21225e-07 
855.505 5.20916e-07 
856.035 5.20606e-07 
856.565 5.20294e-07 
857.096 5.19981e-07 
857.626 5.19666e-07 
858.156 5.1935e-07 
858.687 5.19032e-07 
859.217 5.18712e-07 
859.747 5.18391e-07 
860.277 5.18069e-07 
860.808 5.17745e-07 
861.338 5.1742e-07 
861.868 5.17093e-07 
862.398 5.16764e-07 
862.929 5.16434e-07 
863.459 5.16103e-07 
863.989 5.1577e-07 
864.52 5.15436e-07 
865.05 5.151e-07 
865.58 5.14763e-07 
866.11 5.14424e-07 
866.641 5.14084e-07 
867.171 5.13743e-07 
867.701 5.134e-07 
868.231 5.13056e-07 
868.762 5.12711e-07 
869.292 5.12364e-07 
869.822 5.12016e-07 
870.353 5.11666e-07 
870.883 5.11316e-07 
871.413 5.10964e-07 
871.943 5.10611e-07 
872.474 5.10256e-07 
873.004 5.09901e-07 
873.534 5.09544e-07 
874.064 5.09186e-07 
874.595 5.08827e-07 
875.125 5.08467e-07 
875.655 5.08106e-07 
876.186 5.07744e-07 
876.716 5.07381e-07 
877.246 5.07017e-07 
877.776 5.06652e-07 
878.307 5.06286e-07 
878.837 5.0592e-07 
879.367 5.05552e-07 
879.897 5.05184e-07 
880.428 5.04814e-07 
880.958 5.04444e-07 
881.488 5.04074e-07 
882.019 5.03703e-07 
882.549 5.03331e-07 
883.079 5.02958e-07 
883.609 5.02586e-07 
884.14 5.02212e-07 
884.67 5.01837e-07 
885.2 5.01463e-07 
885.73 5.01088e-07 
886.261 5.00712e-07 
886.791 5.00336e-07 
887.321 4.99959e-07 
887.852 4.99582e-07 
888.382 4.99204e-07 
888.912 4.98826e-07 
889.442 4.98448e-07 
889.973 4.98069e-07 
890.503 4.97689e-07 
891.033 4.97309e-07 
891.563 4.96928e-07 
892.094 4.96546e-07 
892.624 4.96164e-07 
893.154 4.9578e-07 
893.685 4.95395e-07 
894.215 4.95008e-07 
894.745 4.94621e-07 
895.275 4.94231e-07 
895.806 4.93839e-07 
896.336 4.93445e-07 
896.866 4.93048e-07 
897.396 4.92649e-07 
897.927 4.92245e-07 
898.457 4.91838e-07 
898.987 4.91427e-07 
899.518 4.9101e-07 
900.048 4.90589e-07 
900.578 4.9016e-07 
901.108 4.89725e-07 
901.639 4.89282e-07 
902.169 4.88831e-07 
902.699 4.8837e-07 
903.229 4.87898e-07 
903.76 4.87415e-07 
904.29 4.86919e-07 
904.82 4.86408e-07 
905.351 4.85881e-07 
905.881 4.85338e-07 
906.411 4.84775e-07 
906.941 4.84191e-07 
907.472 4.83586e-07 
908.002 4.82955e-07 
908.532 4.82297e-07 
909.062 4.81611e-07 
