#energy geo_1 
400 7.29768e-07 
400.53 7.29685e-07 
401.061 7.29601e-07 
401.591 7.29515e-07 
402.121 7.29429e-07 
402.651 7.29342e-07 
403.182 7.29254e-07 
403.712 7.29165e-07 
404.242 7.29075e-07 
404.772 7.28984e-07 
405.303 7.28893e-07 
405.833 7.288e-07 
406.363 7.28706e-07 
406.894 7.28612e-07 
407.424 7.28517e-07 
407.954 7.28421e-07 
408.484 7.28324e-07 
409.015 7.28226e-07 
409.545 7.28127e-07 
410.075 7.28027e-07 
410.605 7.27927e-07 
411.136 7.27825e-07 
411.666 7.27723e-07 
412.196 7.27619e-07 
412.727 7.27515e-07 
413.257 7.2741e-07 
413.787 7.27304e-07 
414.317 7.27198e-07 
414.848 7.2709e-07 
415.378 7.26981e-07 
415.908 7.26871e-07 
416.438 7.26761e-07 
416.969 7.26649e-07 
417.499 7.26537e-07 
418.029 7.26424e-07 
418.56 7.2631e-07 
419.09 7.26195e-07 
419.62 7.2608e-07 
420.15 7.25963e-07 
420.681 7.25845e-07 
421.211 7.25727e-07 
421.741 7.25608e-07 
422.271 7.25488e-07 
422.802 7.25367e-07 
423.332 7.25246e-07 
423.862 7.25123e-07 
424.393 7.24999e-07 
424.923 7.24875e-07 
425.453 7.2475e-07 
425.983 7.24623e-07 
426.514 7.24496e-07 
427.044 7.24368e-07 
427.574 7.2424e-07 
428.104 7.2411e-07 
428.635 7.23979e-07 
429.165 7.23848e-07 
429.695 7.23715e-07 
430.226 7.23581e-07 
430.756 7.23446e-07 
431.286 7.2331e-07 
431.816 7.23173e-07 
432.347 7.23036e-07 
432.877 7.22896e-07 
433.407 7.22756e-07 
433.938 7.22615e-07 
434.468 7.22472e-07 
434.998 7.22328e-07 
435.528 7.22182e-07 
436.059 7.22035e-07 
436.589 7.21886e-07 
437.119 7.21736e-07 
437.649 7.21584e-07 
438.18 7.21431e-07 
438.71 7.21276e-07 
439.24 7.21118e-07 
439.771 7.20959e-07 
440.301 7.20798e-07 
440.831 7.20634e-07 
441.361 7.20468e-07 
441.892 7.203e-07 
442.422 7.20129e-07 
442.952 7.19956e-07 
443.482 7.19779e-07 
444.013 7.196e-07 
444.543 7.19416e-07 
445.073 7.19231e-07 
445.604 7.19041e-07 
446.134 7.18847e-07 
446.664 7.1865e-07 
447.194 7.18449e-07 
447.725 7.18244e-07 
448.255 7.18034e-07 
448.785 7.1782e-07 
449.315 7.17601e-07 
449.846 7.17377e-07 
450.376 7.17147e-07 
450.906 7.16913e-07 
451.437 7.16673e-07 
451.967 7.16428e-07 
452.497 7.16177e-07 
453.027 7.1592e-07 
453.558 7.15658e-07 
454.088 7.1539e-07 
454.618 7.15115e-07 
455.148 7.14835e-07 
455.679 7.14549e-07 
456.209 7.14258e-07 
456.739 7.13962e-07 
457.27 7.13661e-07 
457.8 7.13356e-07 
458.33 7.13046e-07 
458.86 7.12734e-07 
459.391 7.1242e-07 
459.921 7.12104e-07 
460.451 7.1179e-07 
460.981 7.11477e-07 
461.512 7.11169e-07 
462.042 7.10868e-07 
462.572 7.10578e-07 
463.103 7.103e-07 
463.633 7.10041e-07 
464.163 7.09805e-07 
464.693 7.09599e-07 
465.224 7.09431e-07 
465.754 7.0931e-07 
466.284 7.09249e-07 
466.814 7.09261e-07 
467.345 7.09365e-07 
467.875 7.09584e-07 
468.405 7.09945e-07 
468.936 7.10483e-07 
469.466 7.11245e-07 
469.996 7.12286e-07 
470.526 7.13681e-07 
471.057 7.15525e-07 
471.587 7.17938e-07 
472.117 7.21073e-07 
472.647 7.25118e-07 
473.178 7.30296e-07 
473.708 7.3684e-07 
474.238 7.44928e-07 
474.769 7.54539e-07 
475.299 7.65201e-07 
475.829 7.75671e-07 
476.359 7.83838e-07 
476.89 7.87311e-07 
477.42 7.84727e-07 
477.95 7.76704e-07 
478.48 7.65386e-07 
479.011 7.5311e-07 
479.541 7.41485e-07 
480.071 7.31271e-07 
480.602 7.22645e-07 
481.132 7.15497e-07 
481.662 7.09613e-07 
482.192 7.0477e-07 
482.723 7.00772e-07 
483.253 6.97462e-07 
483.783 6.9472e-07 
484.313 6.92453e-07 
484.844 6.90598e-07 
485.374 6.89112e-07 
485.904 6.87971e-07 
486.435 6.87167e-07 
486.965 6.86706e-07 
487.495 6.86615e-07 
488.025 6.86933e-07 
488.556 6.87721e-07 
489.086 6.89063e-07 
489.616 6.91074e-07 
490.146 6.93903e-07 
490.677 6.97747e-07 
491.207 7.02863e-07 
491.737 7.09574e-07 
492.268 7.18279e-07 
492.798 7.2944e-07 
493.328 7.4352e-07 
493.858 7.60819e-07 
494.389 7.81135e-07 
494.919 8.03192e-07 
495.449 8.24024e-07 
495.979 8.39023e-07 
496.51 8.43537e-07 
497.04 8.35627e-07 
497.57 8.1745e-07 
498.101 7.93695e-07 
498.631 7.68892e-07 
499.161 7.45917e-07 
499.691 7.26001e-07 
500.222 7.09333e-07 
500.752 6.95616e-07 
501.282 6.844e-07 
501.812 6.75241e-07 
502.343 6.67759e-07 
502.873 6.6165e-07 
503.403 6.56682e-07 
503.934 6.52685e-07 
504.464 6.49541e-07 
504.994 6.47174e-07 
505.524 6.45545e-07 
506.055 6.44649e-07 
506.585 6.44513e-07 
507.115 6.45196e-07 
507.646 6.46799e-07 
508.176 6.49459e-07 
508.706 6.53371e-07 
509.236 6.58792e-07 
509.767 6.66061e-07 
510.297 6.75622e-07 
510.827 6.88043e-07 
511.357 7.04046e-07 
511.888 7.24506e-07 
512.418 7.50412e-07 
512.948 7.827e-07 
513.479 8.21839e-07 
514.009 8.67002e-07 
514.539 9.14772e-07 
515.069 9.58012e-07 
515.6 9.86572e-07 
516.13 9.91478e-07 
516.66 9.70583e-07 
517.19 9.30072e-07 
517.721 8.80165e-07 
518.251 8.29722e-07 
518.781 7.83934e-07 
519.312 7.44766e-07 
519.842 7.12288e-07 
520.372 6.85737e-07 
520.902 6.64119e-07 
521.433 6.46488e-07 
521.963 6.32039e-07 
522.493 6.20117e-07 
523.023 6.10209e-07 
523.554 6.0191e-07 
524.084 5.94907e-07 
524.614 5.88953e-07 
525.145 5.83858e-07 
525.675 5.79467e-07 
526.205 5.75661e-07 
526.735 5.72343e-07 
527.266 5.69435e-07 
527.796 5.66874e-07 
528.326 5.64608e-07 
528.856 5.62595e-07 
529.387 5.60799e-07 
529.917 5.59191e-07 
530.447 5.57747e-07 
530.978 5.56447e-07 
531.508 5.55272e-07 
532.038 5.54207e-07 
532.568 5.5324e-07 
533.099 5.52361e-07 
533.629 5.51558e-07 
534.159 5.50825e-07 
534.689 5.50155e-07 
535.22 5.4954e-07 
535.75 5.48975e-07 
536.28 5.48457e-07 
536.811 5.47979e-07 
537.341 5.4754e-07 
537.871 5.47135e-07 
538.401 5.46761e-07 
538.932 5.46416e-07 
539.462 5.46098e-07 
539.992 5.45804e-07 
540.522 5.45532e-07 
541.053 5.45281e-07 
541.583 5.45049e-07 
542.113 5.44835e-07 
542.644 5.44637e-07 
543.174 5.44455e-07 
543.704 5.44287e-07 
544.234 5.44132e-07 
544.765 5.4399e-07 
545.295 5.43859e-07 
545.825 5.43739e-07 
546.355 5.4363e-07 
546.886 5.43529e-07 
547.416 5.43438e-07 
547.946 5.43355e-07 
548.477 5.4328e-07 
549.007 5.43213e-07 
549.537 5.43153e-07 
550.067 5.43099e-07 
550.598 5.43052e-07 
551.128 5.43011e-07 
551.658 5.42976e-07 
552.188 5.42946e-07 
552.719 5.42921e-07 
553.249 5.42901e-07 
553.779 5.42885e-07 
554.31 5.42874e-07 
554.84 5.42867e-07 
555.37 5.42865e-07 
555.9 5.42866e-07 
556.431 5.4287e-07 
556.961 5.42878e-07 
557.491 5.42889e-07 
558.021 5.42904e-07 
558.552 5.42922e-07 
559.082 5.42942e-07 
559.612 5.42966e-07 
560.143 5.42992e-07 
560.673 5.43021e-07 
561.203 5.43052e-07 
561.733 5.43085e-07 
562.264 5.43121e-07 
562.794 5.43159e-07 
563.324 5.43199e-07 
563.854 5.43241e-07 
564.385 5.43285e-07 
564.915 5.43331e-07 
565.445 5.43379e-07 
565.976 5.43428e-07 
566.506 5.4348e-07 
567.036 5.43533e-07 
567.566 5.43587e-07 
568.097 5.43644e-07 
568.627 5.43701e-07 
569.157 5.43761e-07 
569.688 5.43821e-07 
570.218 5.43883e-07 
570.748 5.43946e-07 
571.278 5.4401e-07 
571.809 5.44076e-07 
572.339 5.44142e-07 
572.869 5.4421e-07 
573.399 5.44279e-07 
573.93 5.4435e-07 
574.46 5.44421e-07 
574.99 5.44493e-07 
575.521 5.44566e-07 
576.051 5.4464e-07 
576.581 5.44716e-07 
577.111 5.44792e-07 
577.642 5.44869e-07 
578.172 5.44947e-07 
578.702 5.45026e-07 
579.232 5.45105e-07 
579.763 5.45185e-07 
580.293 5.45267e-07 
580.823 5.45348e-07 
581.354 5.45431e-07 
581.884 5.45515e-07 
582.414 5.45599e-07 
582.944 5.45683e-07 
583.475 5.45769e-07 
584.005 5.45855e-07 
584.535 5.45942e-07 
585.065 5.4603e-07 
585.596 5.46117e-07 
586.126 5.46206e-07 
586.656 5.46296e-07 
587.187 5.46385e-07 
587.717 5.46476e-07 
588.247 5.46567e-07 
588.777 5.46659e-07 
589.308 5.46751e-07 
589.838 5.46843e-07 
590.368 5.46936e-07 
590.898 5.4703e-07 
591.429 5.47124e-07 
591.959 5.47219e-07 
592.489 5.47314e-07 
593.02 5.4741e-07 
593.55 5.47506e-07 
594.08 5.47602e-07 
594.61 5.47699e-07 
595.141 5.47796e-07 
595.671 5.47894e-07 
596.201 5.47992e-07 
596.731 5.48091e-07 
597.262 5.4819e-07 
597.792 5.4829e-07 
598.322 5.48389e-07 
598.853 5.48489e-07 
599.383 5.4859e-07 
599.913 5.48691e-07 
600.443 5.48793e-07 
600.974 5.48894e-07 
601.504 5.48996e-07 
602.034 5.49099e-07 
602.564 5.49201e-07 
603.095 5.49304e-07 
603.625 5.49408e-07 
604.155 5.49512e-07 
604.686 5.49616e-07 
605.216 5.4972e-07 
605.746 5.49824e-07 
606.276 5.49929e-07 
606.807 5.50035e-07 
607.337 5.5014e-07 
607.867 5.50246e-07 
608.397 5.50352e-07 
608.928 5.50458e-07 
609.458 5.50565e-07 
609.988 5.50672e-07 
610.519 5.50779e-07 
611.049 5.50886e-07 
611.579 5.50994e-07 
612.109 5.51102e-07 
612.64 5.51211e-07 
613.17 5.51319e-07 
613.7 5.51428e-07 
614.23 5.51537e-07 
614.761 5.51646e-07 
615.291 5.51756e-07 
615.821 5.51865e-07 
616.352 5.51976e-07 
616.882 5.52086e-07 
617.412 5.52196e-07 
617.942 5.52307e-07 
618.473 5.52417e-07 
619.003 5.52528e-07 
619.533 5.5264e-07 
620.063 5.52751e-07 
620.594 5.52863e-07 
621.124 5.52974e-07 
621.654 5.53087e-07 
622.185 5.53199e-07 
622.715 5.53311e-07 
623.245 5.53424e-07 
623.775 5.53537e-07 
624.306 5.5365e-07 
624.836 5.53763e-07 
625.366 5.53877e-07 
625.896 5.53991e-07 
626.427 5.54104e-07 
626.957 5.54218e-07 
627.487 5.54332e-07 
628.018 5.54447e-07 
628.548 5.54561e-07 
629.078 5.54676e-07 
629.608 5.54791e-07 
630.139 5.54906e-07 
630.669 5.55021e-07 
631.199 5.55136e-07 
631.729 5.55252e-07 
632.26 5.55367e-07 
632.79 5.55483e-07 
633.32 5.55599e-07 
633.851 5.55715e-07 
634.381 5.55831e-07 
634.911 5.55947e-07 
635.441 5.56064e-07 
635.972 5.5618e-07 
636.502 5.56297e-07 
637.032 5.56414e-07 
637.562 5.56531e-07 
638.093 5.56648e-07 
638.623 5.56765e-07 
639.153 5.56883e-07 
639.684 5.57e-07 
640.214 5.57118e-07 
640.744 5.57236e-07 
641.274 5.57354e-07 
641.805 5.57472e-07 
642.335 5.5759e-07 
642.865 5.57708e-07 
643.396 5.57826e-07 
643.926 5.57945e-07 
644.456 5.58064e-07 
644.986 5.58182e-07 
645.517 5.58301e-07 
646.047 5.5842e-07 
646.577 5.58539e-07 
647.107 5.58658e-07 
647.638 5.58777e-07 
648.168 5.58897e-07 
648.698 5.59016e-07 
649.229 5.59136e-07 
649.759 5.59255e-07 
650.289 5.59375e-07 
650.819 5.59494e-07 
651.35 5.59614e-07 
651.88 5.59734e-07 
652.41 5.59854e-07 
652.94 5.59974e-07 
653.471 5.60095e-07 
654.001 5.60215e-07 
654.531 5.60335e-07 
655.062 5.60456e-07 
655.592 5.60576e-07 
656.122 5.60696e-07 
656.652 5.60817e-07 
657.183 5.60937e-07 
657.713 5.61058e-07 
658.243 5.6118e-07 
658.773 5.613e-07 
659.304 5.61421e-07 
659.834 5.61542e-07 
660.364 5.61664e-07 
660.895 5.61784e-07 
661.425 5.61905e-07 
661.955 5.62027e-07 
662.485 5.62148e-07 
663.016 5.62269e-07 
663.546 5.6239e-07 
664.076 5.62511e-07 
664.606 5.62633e-07 
665.137 5.62754e-07 
665.667 5.62876e-07 
666.197 5.62997e-07 
666.728 5.63119e-07 
667.258 5.6324e-07 
667.788 5.63362e-07 
668.318 5.63484e-07 
668.849 5.63605e-07 
669.379 5.63727e-07 
669.909 5.63849e-07 
670.439 5.63971e-07 
670.97 5.64092e-07 
671.5 5.64214e-07 
672.03 5.64336e-07 
672.561 5.64458e-07 
673.091 5.6458e-07 
673.621 5.64702e-07 
674.151 5.64824e-07 
674.682 5.64945e-07 
675.212 5.65067e-07 
675.742 5.65189e-07 
676.272 5.65311e-07 
676.803 5.65433e-07 
677.333 5.65555e-07 
677.863 5.65677e-07 
678.394 5.65798e-07 
678.924 5.6592e-07 
679.454 5.66042e-07 
679.984 5.66164e-07 
680.515 5.66285e-07 
681.045 5.66407e-07 
681.575 5.66529e-07 
682.105 5.66651e-07 
682.636 5.66772e-07 
683.166 5.66894e-07 
683.696 5.67016e-07 
684.227 5.67137e-07 
684.757 5.67259e-07 
685.287 5.6738e-07 
685.817 5.67502e-07 
686.348 5.67624e-07 
686.878 5.67745e-07 
687.408 5.67867e-07 
687.938 5.67988e-07 
688.469 5.68109e-07 
688.999 5.68231e-07 
689.529 5.68352e-07 
690.06 5.68473e-07 
690.59 5.68594e-07 
691.12 5.68715e-07 
691.65 5.68836e-07 
692.181 5.68957e-07 
692.711 5.69078e-07 
693.241 5.69199e-07 
693.771 5.6932e-07 
694.302 5.6944e-07 
694.832 5.69561e-07 
695.362 5.69681e-07 
695.893 5.69802e-07 
696.423 5.69922e-07 
696.953 5.70043e-07 
697.483 5.70163e-07 
698.014 5.70283e-07 
698.544 5.70403e-07 
699.074 5.70523e-07 
699.604 5.70643e-07 
700.135 5.70762e-07 
700.665 5.70882e-07 
701.195 5.71002e-07 
701.726 5.71121e-07 
702.256 5.71241e-07 
702.786 5.71359e-07 
703.316 5.71479e-07 
703.847 5.71598e-07 
704.377 5.71716e-07 
704.907 5.71835e-07 
705.438 5.71954e-07 
705.968 5.72072e-07 
706.498 5.72191e-07 
707.028 5.72309e-07 
707.559 5.72427e-07 
708.089 5.72545e-07 
708.619 5.72663e-07 
709.149 5.7278e-07 
709.68 5.72898e-07 
710.21 5.73015e-07 
710.74 5.73133e-07 
711.271 5.7325e-07 
711.801 5.73367e-07 
712.331 5.73483e-07 
712.861 5.736e-07 
713.392 5.73716e-07 
713.922 5.73833e-07 
714.452 5.73949e-07 
714.982 5.74065e-07 
715.513 5.74181e-07 
716.043 5.74296e-07 
716.573 5.74412e-07 
717.104 5.74527e-07 
717.634 5.74642e-07 
718.164 5.74757e-07 
718.694 5.74871e-07 
719.225 5.74986e-07 
719.755 5.751e-07 
720.285 5.75214e-07 
720.815 5.75328e-07 
721.346 5.75441e-07 
721.876 5.75554e-07 
722.406 5.75668e-07 
722.937 5.75781e-07 
723.467 5.75893e-07 
723.997 5.76006e-07 
724.527 5.76118e-07 
725.058 5.7623e-07 
725.588 5.76342e-07 
726.118 5.76453e-07 
726.648 5.76565e-07 
727.179 5.76675e-07 
727.709 5.76786e-07 
728.239 5.76897e-07 
728.77 5.77007e-07 
729.3 5.77117e-07 
729.83 5.77227e-07 
730.36 5.77336e-07 
730.891 5.77445e-07 
731.421 5.77555e-07 
731.951 5.77663e-07 
732.481 5.77771e-07 
733.012 5.77879e-07 
733.542 5.77987e-07 
734.072 5.78094e-07 
734.603 5.78201e-07 
735.133 5.78309e-07 
735.663 5.78415e-07 
736.193 5.78521e-07 
736.724 5.78627e-07 
737.254 5.78733e-07 
737.784 5.78838e-07 
738.314 5.78943e-07 
738.845 5.79047e-07 
739.375 5.79152e-07 
739.905 5.79256e-07 
740.436 5.79359e-07 
740.966 5.79462e-07 
741.496 5.79565e-07 
742.026 5.79668e-07 
742.557 5.79769e-07 
743.087 5.79871e-07 
743.617 5.79973e-07 
744.147 5.80074e-07 
744.678 5.80174e-07 
745.208 5.80275e-07 
745.738 5.80374e-07 
746.269 5.80474e-07 
746.799 5.80573e-07 
747.329 5.80671e-07 
747.859 5.80769e-07 
748.39 5.80868e-07 
748.92 5.80965e-07 
749.45 5.81062e-07 
749.98 5.81159e-07 
750.511 5.81254e-07 
751.041 5.8135e-07 
751.571 5.81445e-07 
752.102 5.8154e-07 
752.632 5.81634e-07 
753.162 5.81728e-07 
753.692 5.81821e-07 
754.223 5.81914e-07 
754.753 5.82007e-07 
755.283 5.82099e-07 
755.813 5.8219e-07 
756.344 5.82281e-07 
756.874 5.82372e-07 
757.404 5.82462e-07 
757.935 5.82551e-07 
758.465 5.8264e-07 
758.995 5.82729e-07 
759.525 5.82816e-07 
760.056 5.82904e-07 
760.586 5.82991e-07 
761.116 5.83077e-07 
761.646 5.83163e-07 
762.177 5.83248e-07 
762.707 5.83333e-07 
763.237 5.83417e-07 
763.768 5.835e-07 
764.298 5.83583e-07 
764.828 5.83666e-07 
765.358 5.83748e-07 
765.889 5.83829e-07 
766.419 5.83909e-07 
766.949 5.83989e-07 
767.479 5.84069e-07 
768.01 5.84147e-07 
768.54 5.84225e-07 
769.07 5.84303e-07 
769.601 5.8438e-07 
770.131 5.84456e-07 
770.661 5.84532e-07 
771.191 5.84607e-07 
771.722 5.84681e-07 
772.252 5.84755e-07 
772.782 5.84827e-07 
773.312 5.849e-07 
773.843 5.84971e-07 
774.373 5.85042e-07 
774.903 5.85113e-07 
775.434 5.85182e-07 
775.964 5.85251e-07 
776.494 5.85319e-07 
777.024 5.85386e-07 
777.555 5.85453e-07 
778.085 5.85519e-07 
778.615 5.85584e-07 
779.146 5.85649e-07 
779.676 5.85712e-07 
780.206 5.85775e-07 
780.736 5.85837e-07 
781.267 5.85898e-07 
781.797 5.85959e-07 
782.327 5.86018e-07 
782.857 5.86077e-07 
783.388 5.86135e-07 
783.918 5.86192e-07 
784.448 5.86249e-07 
784.979 5.86304e-07 
785.509 5.86359e-07 
786.039 5.86413e-07 
786.569 5.86466e-07 
787.1 5.86518e-07 
787.63 5.86569e-07 
788.16 5.86619e-07 
788.69 5.86669e-07 
789.221 5.86718e-07 
789.751 5.86765e-07 
790.281 5.86812e-07 
790.812 5.86858e-07 
791.342 5.86903e-07 
791.872 5.86947e-07 
792.402 5.8699e-07 
792.933 5.87032e-07 
793.463 5.87074e-07 
793.993 5.87114e-07 
794.523 5.87153e-07 
795.054 5.87191e-07 
795.584 5.87228e-07 
796.114 5.87264e-07 
796.645 5.873e-07 
797.175 5.87334e-07 
797.705 5.87367e-07 
798.235 5.87399e-07 
798.766 5.8743e-07 
799.296 5.8746e-07 
799.826 5.87489e-07 
800.356 5.87517e-07 
800.887 5.87543e-07 
801.417 5.87569e-07 
801.947 5.87594e-07 
802.478 5.87618e-07 
803.008 5.87639e-07 
803.538 5.87661e-07 
804.068 5.8768e-07 
804.599 5.877e-07 
805.129 5.87717e-07 
805.659 5.87734e-07 
806.189 5.87749e-07 
806.72 5.87763e-07 
807.25 5.87776e-07 
807.78 5.87788e-07 
808.311 5.87798e-07 
808.841 5.87808e-07 
809.371 5.87816e-07 
809.901 5.87822e-07 
810.432 5.87828e-07 
810.962 5.87832e-07 
811.492 5.87835e-07 
812.022 5.87837e-07 
812.553 5.87837e-07 
813.083 5.87836e-07 
813.613 5.87834e-07 
814.144 5.87831e-07 
814.674 5.87826e-07 
815.204 5.87819e-07 
815.734 5.87812e-07 
816.265 5.87803e-07 
816.795 5.87792e-07 
817.325 5.8778e-07 
817.855 5.87767e-07 
818.386 5.87752e-07 
818.916 5.87736e-07 
819.446 5.87718e-07 
819.977 5.877e-07 
820.507 5.87679e-07 
821.037 5.87657e-07 
821.567 5.87634e-07 
822.098 5.87609e-07 
822.628 5.87583e-07 
823.158 5.87555e-07 
823.688 5.87526e-07 
824.219 5.87494e-07 
824.749 5.87462e-07 
825.279 5.87427e-07 
825.81 5.87392e-07 
826.34 5.87354e-07 
826.87 5.87315e-07 
827.4 5.87275e-07 
827.931 5.87232e-07 
828.461 5.87188e-07 
828.991 5.87143e-07 
829.521 5.87096e-07 
830.052 5.87047e-07 
830.582 5.86997e-07 
831.112 5.86944e-07 
831.643 5.8689e-07 
832.173 5.86834e-07 
832.703 5.86777e-07 
833.233 5.86718e-07 
833.764 5.86657e-07 
834.294 5.86594e-07 
834.824 5.86529e-07 
835.354 5.86463e-07 
835.885 5.86395e-07 
836.415 5.86325e-07 
836.945 5.86253e-07 
837.476 5.86179e-07 
838.006 5.86104e-07 
838.536 5.86026e-07 
839.066 5.85947e-07 
839.597 5.85866e-07 
840.127 5.85782e-07 
840.657 5.85697e-07 
841.188 5.8561e-07 
841.718 5.85521e-07 
842.248 5.8543e-07 
842.778 5.85337e-07 
843.309 5.85242e-07 
843.839 5.85145e-07 
844.369 5.85046e-07 
844.899 5.84944e-07 
845.43 5.84841e-07 
845.96 5.84736e-07 
846.49 5.84628e-07 
847.021 5.84519e-07 
847.551 5.84407e-07 
848.081 5.84294e-07 
848.611 5.84178e-07 
849.142 5.8406e-07 
849.672 5.83939e-07 
850.202 5.83817e-07 
850.732 5.83692e-07 
851.263 5.83565e-07 
851.793 5.83436e-07 
852.323 5.83305e-07 
852.854 5.83171e-07 
853.384 5.83035e-07 
853.914 5.82897e-07 
854.444 5.82756e-07 
854.975 5.82613e-07 
855.505 5.82468e-07 
856.035 5.82321e-07 
856.565 5.82171e-07 
857.096 5.82019e-07 
857.626 5.81865e-07 
858.156 5.81708e-07 
858.687 5.81548e-07 
859.217 5.81387e-07 
859.747 5.81223e-07 
860.277 5.81056e-07 
860.808 5.80887e-07 
861.338 5.80716e-07 
861.868 5.80542e-07 
862.398 5.80365e-07 
862.929 5.80186e-07 
863.459 5.80005e-07 
863.989 5.79822e-07 
864.52 5.79635e-07 
865.05 5.79446e-07 
865.58 5.79255e-07 
866.11 5.79061e-07 
866.641 5.78865e-07 
867.171 5.78666e-07 
867.701 5.78465e-07 
868.231 5.78261e-07 
868.762 5.78055e-07 
869.292 5.77846e-07 
869.822 5.77635e-07 
870.353 5.77421e-07 
870.883 5.77204e-07 
871.413 5.76985e-07 
871.943 5.76764e-07 
872.474 5.7654e-07 
873.004 5.76313e-07 
873.534 5.76085e-07 
874.064 5.75853e-07 
874.595 5.75619e-07 
875.125 5.75383e-07 
875.655 5.75145e-07 
876.186 5.74903e-07 
876.716 5.7466e-07 
877.246 5.74415e-07 
877.776 5.74167e-07 
878.307 5.73916e-07 
878.837 5.73663e-07 
879.367 5.73408e-07 
879.897 5.73151e-07 
880.428 5.7289e-07 
880.958 5.72629e-07 
881.488 5.72365e-07 
882.019 5.72099e-07 
882.549 5.7183e-07 
883.079 5.7156e-07 
883.609 5.71287e-07 
884.14 5.71012e-07 
884.67 5.70735e-07 
885.2 5.70457e-07 
885.73 5.70175e-07 
886.261 5.69892e-07 
886.791 5.69607e-07 
887.321 5.69319e-07 
887.852 5.69029e-07 
888.382 5.68737e-07 
888.912 5.68443e-07 
889.442 5.68147e-07 
889.973 5.67847e-07 
890.503 5.67546e-07 
891.033 5.67242e-07 
891.563 5.66935e-07 
892.094 5.66626e-07 
892.624 5.66313e-07 
893.154 5.65998e-07 
893.685 5.65678e-07 
894.215 5.65355e-07 
894.745 5.65029e-07 
895.275 5.64697e-07 
895.806 5.64361e-07 
896.336 5.6402e-07 
896.866 5.63673e-07 
897.396 5.63321e-07 
897.927 5.62961e-07 
898.457 5.62594e-07 
898.987 5.6222e-07 
899.518 5.61836e-07 
900.048 5.61443e-07 
900.578 5.61039e-07 
901.108 5.60624e-07 
901.639 5.60195e-07 
902.169 5.59753e-07 
902.699 5.59295e-07 
903.229 5.58821e-07 
903.76 5.58329e-07 
904.29 5.57816e-07 
904.82 5.57282e-07 
905.351 5.56723e-07 
905.881 5.5614e-07 
906.411 5.55528e-07 
906.941 5.54885e-07 
907.472 5.5421e-07 
908.002 5.53498e-07 
908.532 5.52748e-07 
909.062 5.51955e-07 
909.593 5.51118e-07 
