#energy geo_1 
400 6.74264e-07 
400.53 6.74157e-07 
401.061 6.74049e-07 
401.591 6.73941e-07 
402.121 6.73832e-07 
402.651 6.73723e-07 
403.182 6.73613e-07 
403.712 6.73502e-07 
404.242 6.73391e-07 
404.772 6.7328e-07 
405.303 6.73168e-07 
405.833 6.73056e-07 
406.363 6.72944e-07 
406.894 6.7283e-07 
407.424 6.72717e-07 
407.954 6.72603e-07 
408.484 6.72489e-07 
409.015 6.72374e-07 
409.545 6.72259e-07 
410.075 6.72144e-07 
410.605 6.72027e-07 
411.136 6.71911e-07 
411.666 6.71794e-07 
412.196 6.71677e-07 
412.727 6.7156e-07 
413.257 6.71442e-07 
413.787 6.71324e-07 
414.317 6.71205e-07 
414.848 6.71086e-07 
415.378 6.70966e-07 
415.908 6.70847e-07 
416.438 6.70727e-07 
416.969 6.70606e-07 
417.499 6.70486e-07 
418.029 6.70365e-07 
418.56 6.70243e-07 
419.09 6.70122e-07 
419.62 6.7e-07 
420.15 6.69878e-07 
420.681 6.69755e-07 
421.211 6.69632e-07 
421.741 6.69509e-07 
422.271 6.69386e-07 
422.802 6.69262e-07 
423.332 6.69138e-07 
423.862 6.69014e-07 
424.393 6.68889e-07 
424.923 6.68764e-07 
425.453 6.68639e-07 
425.983 6.68514e-07 
426.514 6.68388e-07 
427.044 6.68262e-07 
427.574 6.68136e-07 
428.104 6.6801e-07 
428.635 6.67883e-07 
429.165 6.67756e-07 
429.695 6.67629e-07 
430.226 6.67501e-07 
430.756 6.67373e-07 
431.286 6.67244e-07 
431.816 6.67115e-07 
432.347 6.66986e-07 
432.877 6.66856e-07 
433.407 6.66726e-07 
433.938 6.66595e-07 
434.468 6.66464e-07 
434.998 6.66333e-07 
435.528 6.662e-07 
436.059 6.66068e-07 
436.589 6.65934e-07 
437.119 6.658e-07 
437.649 6.65664e-07 
438.18 6.65528e-07 
438.71 6.65391e-07 
439.24 6.65253e-07 
439.771 6.65114e-07 
440.301 6.64974e-07 
440.831 6.64832e-07 
441.361 6.64689e-07 
441.892 6.64544e-07 
442.422 6.64398e-07 
442.952 6.64251e-07 
443.482 6.64101e-07 
444.013 6.6395e-07 
444.543 6.63797e-07 
445.073 6.63641e-07 
445.604 6.63483e-07 
446.134 6.63323e-07 
446.664 6.63161e-07 
447.194 6.62995e-07 
447.725 6.62827e-07 
448.255 6.62656e-07 
448.785 6.62481e-07 
449.315 6.62304e-07 
449.846 6.62123e-07 
450.376 6.61938e-07 
450.906 6.6175e-07 
451.437 6.61558e-07 
451.967 6.61362e-07 
452.497 6.61162e-07 
453.027 6.60958e-07 
453.558 6.60751e-07 
454.088 6.60539e-07 
454.618 6.60323e-07 
455.148 6.60103e-07 
455.679 6.5988e-07 
456.209 6.59653e-07 
456.739 6.59423e-07 
457.27 6.5919e-07 
457.8 6.58954e-07 
458.33 6.58716e-07 
458.86 6.58478e-07 
459.391 6.58239e-07 
459.921 6.58001e-07 
460.451 6.57765e-07 
460.981 6.57533e-07 
461.512 6.57307e-07 
462.042 6.57088e-07 
462.572 6.56881e-07 
463.103 6.56688e-07 
463.633 6.56513e-07 
464.163 6.56361e-07 
464.693 6.56238e-07 
465.224 6.56152e-07 
465.754 6.56111e-07 
466.284 6.56125e-07 
466.814 6.56209e-07 
467.345 6.56379e-07 
467.875 6.56655e-07 
468.405 6.57063e-07 
468.936 6.57636e-07 
469.466 6.58414e-07 
469.996 6.59451e-07 
470.526 6.60813e-07 
471.057 6.62587e-07 
471.587 6.64884e-07 
472.117 6.67844e-07 
472.647 6.71639e-07 
473.178 6.76474e-07 
473.708 6.82561e-07 
474.238 6.90064e-07 
474.769 6.98963e-07 
475.299 7.08825e-07 
475.829 7.18509e-07 
476.359 7.2608e-07 
476.89 7.29346e-07 
477.42 7.27056e-07 
477.95 7.19778e-07 
478.48 7.09477e-07 
479.011 6.98296e-07 
479.541 6.87712e-07 
480.071 6.78422e-07 
480.602 6.7059e-07 
481.132 6.64114e-07 
481.662 6.58798e-07 
482.192 6.5444e-07 
482.723 6.5086e-07 
483.253 6.47914e-07 
483.783 6.45493e-07 
484.313 6.43513e-07 
484.844 6.41917e-07 
485.374 6.40666e-07 
485.904 6.39739e-07 
486.435 6.39129e-07 
486.965 6.38848e-07 
487.495 6.38916e-07 
488.025 6.39376e-07 
488.556 6.40284e-07 
489.086 6.41724e-07 
489.616 6.43803e-07 
490.146 6.46666e-07 
490.677 6.50502e-07 
491.207 6.55555e-07 
491.737 6.62135e-07 
492.268 6.70624e-07 
492.798 6.81463e-07 
493.328 6.95094e-07 
493.858 7.11805e-07 
494.389 7.31402e-07 
494.919 7.52664e-07 
495.449 7.72756e-07 
495.979 7.87271e-07 
496.51 7.91762e-07 
497.04 7.84376e-07 
497.57 7.67172e-07 
498.101 7.44636e-07 
498.631 7.21099e-07 
499.161 6.9931e-07 
499.691 6.80445e-07 
500.222 6.64686e-07 
500.752 6.5175e-07 
501.282 6.41204e-07 
501.812 6.32624e-07 
502.343 6.25646e-07 
502.873 6.19978e-07 
503.403 6.15398e-07 
503.934 6.11741e-07 
504.464 6.08892e-07 
504.994 6.06777e-07 
505.524 6.05355e-07 
506.055 6.04617e-07 
506.585 6.04585e-07 
507.115 6.05312e-07 
507.646 6.06883e-07 
508.176 6.09426e-07 
508.706 6.13111e-07 
509.236 6.18173e-07 
509.767 6.24916e-07 
510.297 6.33743e-07 
510.827 6.45167e-07 
511.357 6.5984e-07 
511.888 6.78558e-07 
512.418 7.02214e-07 
512.948 7.31654e-07 
513.479 7.67305e-07 
514.009 8.08411e-07 
514.539 8.51875e-07 
515.069 8.91219e-07 
515.6 9.17237e-07 
516.13 9.2179e-07 
516.66 9.02928e-07 
517.19 8.66264e-07 
517.721 8.21065e-07 
518.251 7.7537e-07 
518.781 7.33886e-07 
519.312 6.98398e-07 
519.842 6.68971e-07 
520.372 6.44913e-07 
520.902 6.25324e-07 
521.433 6.09348e-07 
521.963 5.96254e-07 
522.493 5.8545e-07 
523.023 5.76468e-07 
523.554 5.68945e-07 
524.084 5.62594e-07 
524.614 5.57195e-07 
525.145 5.52572e-07 
525.675 5.48587e-07 
526.205 5.45131e-07 
526.735 5.42117e-07 
527.266 5.39474e-07 
527.796 5.37144e-07 
528.326 5.35081e-07 
528.856 5.33248e-07 
529.387 5.31611e-07 
529.917 5.30143e-07 
530.447 5.28824e-07 
530.978 5.27634e-07 
531.508 5.26558e-07 
532.038 5.25582e-07 
532.568 5.24693e-07 
533.099 5.23884e-07 
533.629 5.23144e-07 
534.159 5.22467e-07 
534.689 5.21846e-07 
535.22 5.21275e-07 
535.75 5.2075e-07 
536.28 5.20265e-07 
536.811 5.19819e-07 
537.341 5.19406e-07 
537.871 5.19024e-07 
538.401 5.18671e-07 
538.932 5.18343e-07 
539.462 5.1804e-07 
539.992 5.17758e-07 
540.522 5.17496e-07 
541.053 5.17254e-07 
541.583 5.17028e-07 
542.113 5.16817e-07 
542.644 5.16622e-07 
543.174 5.16441e-07 
543.704 5.16272e-07 
544.234 5.16115e-07 
544.765 5.1597e-07 
545.295 5.15834e-07 
545.825 5.15708e-07 
546.355 5.15592e-07 
546.886 5.15484e-07 
547.416 5.15384e-07 
547.946 5.15291e-07 
548.477 5.15206e-07 
549.007 5.15127e-07 
549.537 5.15054e-07 
550.067 5.14988e-07 
550.598 5.14927e-07 
551.128 5.14871e-07 
551.658 5.14821e-07 
552.188 5.14775e-07 
552.719 5.14734e-07 
553.249 5.14697e-07 
553.779 5.14664e-07 
554.31 5.14635e-07 
554.84 5.1461e-07 
555.37 5.14588e-07 
555.9 5.1457e-07 
556.431 5.14555e-07 
556.961 5.14543e-07 
557.491 5.14534e-07 
558.021 5.14527e-07 
558.552 5.14524e-07 
559.082 5.14522e-07 
559.612 5.14524e-07 
560.143 5.14527e-07 
560.673 5.14533e-07 
561.203 5.14541e-07 
561.733 5.14551e-07 
562.264 5.14563e-07 
562.794 5.14577e-07 
563.324 5.14593e-07 
563.854 5.1461e-07 
564.385 5.1463e-07 
564.915 5.14651e-07 
565.445 5.14673e-07 
565.976 5.14696e-07 
566.506 5.14722e-07 
567.036 5.14749e-07 
567.566 5.14777e-07 
568.097 5.14806e-07 
568.627 5.14837e-07 
569.157 5.14869e-07 
569.688 5.14902e-07 
570.218 5.14936e-07 
570.748 5.14971e-07 
571.278 5.15007e-07 
571.809 5.15045e-07 
572.339 5.15083e-07 
572.869 5.15122e-07 
573.399 5.15162e-07 
573.93 5.15203e-07 
574.46 5.15246e-07 
574.99 5.15288e-07 
575.521 5.15332e-07 
576.051 5.15376e-07 
576.581 5.15421e-07 
577.111 5.15467e-07 
577.642 5.15514e-07 
578.172 5.15561e-07 
578.702 5.1561e-07 
579.232 5.15658e-07 
579.763 5.15707e-07 
580.293 5.15757e-07 
580.823 5.15808e-07 
581.354 5.15859e-07 
581.884 5.15911e-07 
582.414 5.15963e-07 
582.944 5.16016e-07 
583.475 5.16069e-07 
584.005 5.16123e-07 
584.535 5.16178e-07 
585.065 5.16233e-07 
585.596 5.16288e-07 
586.126 5.16344e-07 
586.656 5.164e-07 
587.187 5.16457e-07 
587.717 5.16514e-07 
588.247 5.16571e-07 
588.777 5.16629e-07 
589.308 5.16688e-07 
589.838 5.16746e-07 
590.368 5.16805e-07 
590.898 5.16865e-07 
591.429 5.16925e-07 
591.959 5.16985e-07 
592.489 5.17045e-07 
593.02 5.17106e-07 
593.55 5.17168e-07 
594.08 5.17229e-07 
594.61 5.17291e-07 
595.141 5.17353e-07 
595.671 5.17415e-07 
596.201 5.17478e-07 
596.731 5.17541e-07 
597.262 5.17604e-07 
597.792 5.17667e-07 
598.322 5.17731e-07 
598.853 5.17795e-07 
599.383 5.17859e-07 
599.913 5.17924e-07 
600.443 5.17989e-07 
600.974 5.18053e-07 
601.504 5.18119e-07 
602.034 5.18184e-07 
602.564 5.1825e-07 
603.095 5.18316e-07 
603.625 5.18381e-07 
604.155 5.18448e-07 
604.686 5.18514e-07 
605.216 5.18581e-07 
605.746 5.18648e-07 
606.276 5.18714e-07 
606.807 5.18781e-07 
607.337 5.18849e-07 
607.867 5.18916e-07 
608.397 5.18984e-07 
608.928 5.19052e-07 
609.458 5.19119e-07 
609.988 5.19187e-07 
610.519 5.19256e-07 
611.049 5.19324e-07 
611.579 5.19393e-07 
612.109 5.19461e-07 
612.64 5.1953e-07 
613.17 5.19599e-07 
613.7 5.19668e-07 
614.23 5.19737e-07 
614.761 5.19807e-07 
615.291 5.19876e-07 
615.821 5.19946e-07 
616.352 5.20015e-07 
616.882 5.20085e-07 
617.412 5.20155e-07 
617.942 5.20225e-07 
618.473 5.20295e-07 
619.003 5.20365e-07 
619.533 5.20435e-07 
620.063 5.20506e-07 
620.594 5.20575e-07 
621.124 5.20646e-07 
621.654 5.20717e-07 
622.185 5.20788e-07 
622.715 5.20858e-07 
623.245 5.20929e-07 
623.775 5.21e-07 
624.306 5.2107e-07 
624.836 5.21141e-07 
625.366 5.21212e-07 
625.896 5.21283e-07 
626.427 5.21355e-07 
626.957 5.21426e-07 
627.487 5.21497e-07 
628.018 5.21568e-07 
628.548 5.21639e-07 
629.078 5.21711e-07 
629.608 5.21782e-07 
630.139 5.21854e-07 
630.669 5.21925e-07 
631.199 5.21997e-07 
631.729 5.22068e-07 
632.26 5.2214e-07 
632.79 5.22212e-07 
633.32 5.22283e-07 
633.851 5.22355e-07 
634.381 5.22427e-07 
634.911 5.22499e-07 
635.441 5.2257e-07 
635.972 5.22642e-07 
636.502 5.22714e-07 
637.032 5.22786e-07 
637.562 5.22858e-07 
638.093 5.2293e-07 
638.623 5.23001e-07 
639.153 5.23073e-07 
639.684 5.23145e-07 
640.214 5.23217e-07 
640.744 5.23289e-07 
641.274 5.23361e-07 
641.805 5.23432e-07 
642.335 5.23504e-07 
642.865 5.23576e-07 
643.396 5.23648e-07 
643.926 5.2372e-07 
644.456 5.23791e-07 
644.986 5.23863e-07 
645.517 5.23935e-07 
646.047 5.24007e-07 
646.577 5.24078e-07 
647.107 5.2415e-07 
647.638 5.24222e-07 
648.168 5.24293e-07 
648.698 5.24365e-07 
649.229 5.24436e-07 
649.759 5.24508e-07 
650.289 5.24579e-07 
650.819 5.24651e-07 
651.35 5.24722e-07 
651.88 5.24794e-07 
652.41 5.24865e-07 
652.94 5.24936e-07 
653.471 5.25007e-07 
654.001 5.25079e-07 
654.531 5.2515e-07 
655.062 5.25221e-07 
655.592 5.25292e-07 
656.122 5.25363e-07 
656.652 5.25434e-07 
657.183 5.25505e-07 
657.713 5.25575e-07 
658.243 5.25646e-07 
658.773 5.25717e-07 
659.304 5.25788e-07 
659.834 5.25858e-07 
660.364 5.25929e-07 
660.895 5.25999e-07 
661.425 5.26069e-07 
661.955 5.2614e-07 
662.485 5.2621e-07 
663.016 5.2628e-07 
663.546 5.2635e-07 
664.076 5.2642e-07 
664.606 5.26489e-07 
665.137 5.26559e-07 
665.667 5.26629e-07 
666.197 5.26698e-07 
666.728 5.26768e-07 
667.258 5.26837e-07 
667.788 5.26906e-07 
668.318 5.26976e-07 
668.849 5.27045e-07 
669.379 5.27114e-07 
669.909 5.27182e-07 
670.439 5.27251e-07 
670.97 5.2732e-07 
671.5 5.27388e-07 
672.03 5.27457e-07 
672.561 5.27525e-07 
673.091 5.27593e-07 
673.621 5.27661e-07 
674.151 5.27729e-07 
674.682 5.27797e-07 
675.212 5.27865e-07 
675.742 5.27932e-07 
676.272 5.28e-07 
676.803 5.28067e-07 
677.333 5.28134e-07 
677.863 5.28201e-07 
678.394 5.28268e-07 
678.924 5.28335e-07 
679.454 5.28401e-07 
679.984 5.28468e-07 
680.515 5.28534e-07 
681.045 5.286e-07 
681.575 5.28666e-07 
682.105 5.28732e-07 
682.636 5.28798e-07 
683.166 5.28863e-07 
683.696 5.28929e-07 
684.227 5.28994e-07 
684.757 5.29059e-07 
685.287 5.29124e-07 
685.817 5.29189e-07 
686.348 5.29254e-07 
686.878 5.29318e-07 
687.408 5.29382e-07 
687.938 5.29446e-07 
688.469 5.2951e-07 
688.999 5.29574e-07 
689.529 5.29638e-07 
690.06 5.29701e-07 
690.59 5.29764e-07 
691.12 5.29827e-07 
691.65 5.2989e-07 
692.181 5.29952e-07 
692.711 5.30015e-07 
693.241 5.30077e-07 
693.771 5.30139e-07 
694.302 5.30201e-07 
694.832 5.30262e-07 
695.362 5.30323e-07 
695.893 5.30385e-07 
696.423 5.30445e-07 
696.953 5.30506e-07 
697.483 5.30566e-07 
698.014 5.30627e-07 
698.544 5.30687e-07 
699.074 5.30746e-07 
699.604 5.30806e-07 
700.135 5.30865e-07 
700.665 5.30925e-07 
701.195 5.30983e-07 
701.726 5.31042e-07 
702.256 5.311e-07 
702.786 5.31158e-07 
703.316 5.31216e-07 
703.847 5.31274e-07 
704.377 5.31331e-07 
704.907 5.31388e-07 
705.438 5.31445e-07 
705.968 5.31502e-07 
706.498 5.31558e-07 
707.028 5.31615e-07 
707.559 5.3167e-07 
708.089 5.31726e-07 
708.619 5.31781e-07 
709.149 5.31836e-07 
709.68 5.31891e-07 
710.21 5.31945e-07 
710.74 5.31999e-07 
711.271 5.32053e-07 
711.801 5.32107e-07 
712.331 5.3216e-07 
712.861 5.32213e-07 
713.392 5.32266e-07 
713.922 5.32318e-07 
714.452 5.3237e-07 
714.982 5.32422e-07 
715.513 5.32473e-07 
716.043 5.32524e-07 
716.573 5.32575e-07 
717.104 5.32626e-07 
717.634 5.32676e-07 
718.164 5.32725e-07 
718.694 5.32775e-07 
719.225 5.32824e-07 
719.755 5.32873e-07 
720.285 5.32921e-07 
720.815 5.3297e-07 
721.346 5.33017e-07 
721.876 5.33065e-07 
722.406 5.33112e-07 
722.937 5.33159e-07 
723.467 5.33205e-07 
723.997 5.33251e-07 
724.527 5.33297e-07 
725.058 5.33342e-07 
725.588 5.33387e-07 
726.118 5.33431e-07 
726.648 5.33475e-07 
727.179 5.33519e-07 
727.709 5.33563e-07 
728.239 5.33605e-07 
728.77 5.33648e-07 
729.3 5.3369e-07 
729.83 5.33732e-07 
730.36 5.33774e-07 
730.891 5.33815e-07 
731.421 5.33855e-07 
731.951 5.33895e-07 
732.481 5.33935e-07 
733.012 5.33974e-07 
733.542 5.34013e-07 
734.072 5.34052e-07 
734.603 5.3409e-07 
735.133 5.34127e-07 
735.663 5.34164e-07 
736.193 5.34201e-07 
736.724 5.34237e-07 
737.254 5.34273e-07 
737.784 5.34308e-07 
738.314 5.34343e-07 
738.845 5.34377e-07 
739.375 5.34411e-07 
739.905 5.34444e-07 
740.436 5.34477e-07 
740.966 5.3451e-07 
741.496 5.34542e-07 
742.026 5.34573e-07 
742.557 5.34604e-07 
743.087 5.34635e-07 
743.617 5.34665e-07 
744.147 5.34694e-07 
744.678 5.34723e-07 
745.208 5.34752e-07 
745.738 5.3478e-07 
746.269 5.34807e-07 
746.799 5.34834e-07 
747.329 5.3486e-07 
747.859 5.34886e-07 
748.39 5.34911e-07 
748.92 5.34936e-07 
749.45 5.3496e-07 
749.98 5.34983e-07 
750.511 5.35007e-07 
751.041 5.35029e-07 
751.571 5.35051e-07 
752.102 5.35073e-07 
752.632 5.35093e-07 
753.162 5.35114e-07 
753.692 5.35133e-07 
754.223 5.35152e-07 
754.753 5.35171e-07 
755.283 5.35188e-07 
755.813 5.35206e-07 
756.344 5.35222e-07 
756.874 5.35238e-07 
757.404 5.35253e-07 
757.935 5.35268e-07 
758.465 5.35282e-07 
758.995 5.35296e-07 
759.525 5.35309e-07 
760.056 5.35321e-07 
760.586 5.35332e-07 
761.116 5.35343e-07 
761.646 5.35353e-07 
762.177 5.35363e-07 
762.707 5.35371e-07 
763.237 5.3538e-07 
763.768 5.35387e-07 
764.298 5.35394e-07 
764.828 5.354e-07 
765.358 5.35406e-07 
765.889 5.35411e-07 
766.419 5.35415e-07 
766.949 5.35418e-07 
767.479 5.35421e-07 
768.01 5.35422e-07 
768.54 5.35424e-07 
769.07 5.35424e-07 
769.601 5.35424e-07 
770.131 5.35422e-07 
770.661 5.35421e-07 
771.191 5.35418e-07 
771.722 5.35414e-07 
772.252 5.3541e-07 
772.782 5.35405e-07 
773.312 5.354e-07 
773.843 5.35393e-07 
774.373 5.35386e-07 
774.903 5.35378e-07 
775.434 5.35369e-07 
775.964 5.35359e-07 
776.494 5.35349e-07 
777.024 5.35337e-07 
777.555 5.35325e-07 
778.085 5.35312e-07 
778.615 5.35299e-07 
779.146 5.35284e-07 
779.676 5.35268e-07 
780.206 5.35252e-07 
780.736 5.35235e-07 
781.267 5.35216e-07 
781.797 5.35198e-07 
782.327 5.35177e-07 
782.857 5.35157e-07 
783.388 5.35135e-07 
783.918 5.35112e-07 
784.448 5.35089e-07 
784.979 5.35065e-07 
785.509 5.35039e-07 
786.039 5.35013e-07 
786.569 5.34986e-07 
787.1 5.34958e-07 
787.63 5.34929e-07 
788.16 5.34899e-07 
788.69 5.34868e-07 
789.221 5.34836e-07 
789.751 5.34803e-07 
790.281 5.34769e-07 
790.812 5.34734e-07 
791.342 5.34698e-07 
791.872 5.34661e-07 
792.402 5.34623e-07 
792.933 5.34584e-07 
793.463 5.34544e-07 
793.993 5.34503e-07 
794.523 5.34461e-07 
795.054 5.34418e-07 
795.584 5.34374e-07 
796.114 5.34329e-07 
796.645 5.34282e-07 
797.175 5.34235e-07 
797.705 5.34186e-07 
798.235 5.34137e-07 
798.766 5.34086e-07 
799.296 5.34035e-07 
799.826 5.33982e-07 
800.356 5.33928e-07 
800.887 5.33873e-07 
801.417 5.33817e-07 
801.947 5.33759e-07 
802.478 5.33701e-07 
803.008 5.33641e-07 
803.538 5.3358e-07 
804.068 5.33518e-07 
804.599 5.33455e-07 
805.129 5.33391e-07 
805.659 5.33325e-07 
806.189 5.33259e-07 
806.72 5.33191e-07 
807.25 5.33121e-07 
807.78 5.33051e-07 
808.311 5.32979e-07 
808.841 5.32907e-07 
809.371 5.32833e-07 
809.901 5.32757e-07 
810.432 5.32681e-07 
810.962 5.32603e-07 
811.492 5.32524e-07 
812.022 5.32443e-07 
812.553 5.32362e-07 
813.083 5.32279e-07 
813.613 5.32194e-07 
814.144 5.32109e-07 
814.674 5.32022e-07 
815.204 5.31933e-07 
815.734 5.31843e-07 
816.265 5.31753e-07 
816.795 5.3166e-07 
817.325 5.31566e-07 
817.855 5.31472e-07 
818.386 5.31375e-07 
818.916 5.31277e-07 
819.446 5.31178e-07 
819.977 5.31077e-07 
820.507 5.30975e-07 
821.037 5.30872e-07 
821.567 5.30767e-07 
822.098 5.30661e-07 
822.628 5.30552e-07 
823.158 5.30444e-07 
823.688 5.30333e-07 
824.219 5.30221e-07 
824.749 5.30107e-07 
825.279 5.29992e-07 
825.81 5.29875e-07 
826.34 5.29757e-07 
826.87 5.29637e-07 
827.4 5.29516e-07 
827.931 5.29393e-07 
828.461 5.29269e-07 
828.991 5.29143e-07 
829.521 5.29016e-07 
830.052 5.28887e-07 
830.582 5.28756e-07 
831.112 5.28624e-07 
831.643 5.2849e-07 
832.173 5.28355e-07 
832.703 5.28218e-07 
833.233 5.2808e-07 
833.764 5.27939e-07 
834.294 5.27798e-07 
834.824 5.27654e-07 
835.354 5.27509e-07 
835.885 5.27362e-07 
836.415 5.27214e-07 
836.945 5.27064e-07 
837.476 5.26912e-07 
838.006 5.26759e-07 
838.536 5.26604e-07 
839.066 5.26447e-07 
839.597 5.26288e-07 
840.127 5.26128e-07 
840.657 5.25966e-07 
841.188 5.25802e-07 
841.718 5.25637e-07 
842.248 5.25469e-07 
842.778 5.253e-07 
843.309 5.2513e-07 
843.839 5.24957e-07 
844.369 5.24783e-07 
844.899 5.24606e-07 
845.43 5.24429e-07 
845.96 5.24249e-07 
846.49 5.24067e-07 
847.021 5.23884e-07 
847.551 5.23699e-07 
848.081 5.23512e-07 
848.611 5.23323e-07 
849.142 5.23132e-07 
849.672 5.22939e-07 
850.202 5.22745e-07 
850.732 5.22548e-07 
851.263 5.2235e-07 
851.793 5.2215e-07 
852.323 5.21948e-07 
852.854 5.21744e-07 
853.384 5.21538e-07 
853.914 5.2133e-07 
854.444 5.2112e-07 
854.975 5.20908e-07 
855.505 5.20695e-07 
856.035 5.2048e-07 
856.565 5.20262e-07 
857.096 5.20043e-07 
857.626 5.19821e-07 
858.156 5.19598e-07 
858.687 5.19373e-07 
859.217 5.19145e-07 
859.747 5.18916e-07 
860.277 5.18685e-07 
860.808 5.18451e-07 
861.338 5.18216e-07 
861.868 5.17979e-07 
862.398 5.1774e-07 
862.929 5.17499e-07 
863.459 5.17256e-07 
863.989 5.17011e-07 
864.52 5.16764e-07 
865.05 5.16514e-07 
865.58 5.16264e-07 
866.11 5.16011e-07 
866.641 5.15756e-07 
867.171 5.15499e-07 
867.701 5.1524e-07 
868.231 5.14979e-07 
868.762 5.14716e-07 
869.292 5.14451e-07 
869.822 5.14185e-07 
870.353 5.13916e-07 
870.883 5.13646e-07 
871.413 5.13373e-07 
871.943 5.13099e-07 
872.474 5.12823e-07 
873.004 5.12545e-07 
873.534 5.12265e-07 
874.064 5.11983e-07 
874.595 5.11699e-07 
875.125 5.11414e-07 
875.655 5.11127e-07 
876.186 5.10838e-07 
876.716 5.10547e-07 
877.246 5.10255e-07 
877.776 5.09961e-07 
878.307 5.09665e-07 
878.837 5.09367e-07 
879.367 5.09069e-07 
879.897 5.08768e-07 
880.428 5.08465e-07 
880.958 5.08162e-07 
881.488 5.07857e-07 
882.019 5.0755e-07 
882.549 5.07242e-07 
883.079 5.06933e-07 
883.609 5.06622e-07 
884.14 5.06309e-07 
884.67 5.05995e-07 
885.2 5.0568e-07 
885.73 5.05364e-07 
886.261 5.05045e-07 
886.791 5.04726e-07 
887.321 5.04406e-07 
887.852 5.04084e-07 
888.382 5.0376e-07 
888.912 5.03435e-07 
889.442 5.03109e-07 
889.973 5.02781e-07 
890.503 5.02451e-07 
891.033 5.02121e-07 
891.563 5.01788e-07 
892.094 5.01453e-07 
892.624 5.01117e-07 
893.154 5.00778e-07 
893.685 5.00437e-07 
894.215 5.00094e-07 
894.745 4.99747e-07 
895.275 4.99398e-07 
895.806 4.99046e-07 
896.336 4.9869e-07 
896.866 4.9833e-07 
897.396 4.97966e-07 
897.927 4.97597e-07 
898.457 4.97222e-07 
898.987 4.96842e-07 
899.518 4.96456e-07 
900.048 4.96062e-07 
900.578 4.9566e-07 
901.108 4.9525e-07 
901.639 4.9483e-07 
902.169 4.944e-07 
902.699 4.93958e-07 
903.229 4.93503e-07 
903.76 4.93034e-07 
904.29 4.9255e-07 
904.82 4.9205e-07 
905.351 4.9153e-07 
905.881 4.90992e-07 
906.411 4.90431e-07 
906.941 4.89846e-07 
907.472 4.89236e-07 
908.002 4.88598e-07 
908.532 4.87929e-07 
909.062 4.87227e-07 
