#energy geo_1 
400 3.9752e-06 
400.53 3.97561e-06 
401.061 3.97602e-06 
401.591 3.97642e-06 
402.121 3.97682e-06 
402.651 3.97722e-06 
403.182 3.97761e-06 
403.712 3.97799e-06 
404.242 3.97837e-06 
404.772 3.97875e-06 
405.303 3.97912e-06 
405.833 3.97949e-06 
406.363 3.97985e-06 
406.894 3.98021e-06 
407.424 3.98057e-06 
407.954 3.98092e-06 
408.484 3.98126e-06 
409.015 3.9816e-06 
409.545 3.98194e-06 
410.075 3.98227e-06 
410.605 3.98259e-06 
411.136 3.98291e-06 
411.666 3.98323e-06 
412.196 3.98354e-06 
412.727 3.98384e-06 
413.257 3.98415e-06 
413.787 3.98444e-06 
414.317 3.98473e-06 
414.848 3.98502e-06 
415.378 3.9853e-06 
415.908 3.98557e-06 
416.438 3.98584e-06 
416.969 3.98611e-06 
417.499 3.98637e-06 
418.029 3.98663e-06 
418.56 3.98687e-06 
419.09 3.98712e-06 
419.62 3.98736e-06 
420.15 3.98759e-06 
420.681 3.98782e-06 
421.211 3.98804e-06 
421.741 3.98826e-06 
422.271 3.98847e-06 
422.802 3.98868e-06 
423.332 3.98888e-06 
423.862 3.98908e-06 
424.393 3.98927e-06 
424.923 3.98945e-06 
425.453 3.98963e-06 
425.983 3.9898e-06 
426.514 3.98997e-06 
427.044 3.99013e-06 
427.574 3.99028e-06 
428.104 3.99043e-06 
428.635 3.99057e-06 
429.165 3.99071e-06 
429.695 3.99084e-06 
430.226 3.99097e-06 
430.756 3.99109e-06 
431.286 3.9912e-06 
431.816 3.9913e-06 
432.347 3.9914e-06 
432.877 3.99149e-06 
433.407 3.99158e-06 
433.938 3.99166e-06 
434.468 3.99173e-06 
434.998 3.9918e-06 
435.528 3.99186e-06 
436.059 3.99191e-06 
436.589 3.99196e-06 
437.119 3.99199e-06 
437.649 3.99203e-06 
438.18 3.99205e-06 
438.71 3.99207e-06 
439.24 3.99207e-06 
439.771 3.99208e-06 
440.301 3.99207e-06 
440.831 3.99206e-06 
441.361 3.99203e-06 
441.892 3.992e-06 
442.422 3.99197e-06 
442.952 3.99192e-06 
443.482 3.99187e-06 
444.013 3.9918e-06 
444.543 3.99173e-06 
445.073 3.99165e-06 
445.604 3.99156e-06 
446.134 3.99146e-06 
446.664 3.99135e-06 
447.194 3.99124e-06 
447.725 3.99111e-06 
448.255 3.99097e-06 
448.785 3.99083e-06 
449.315 3.99067e-06 
449.846 3.9905e-06 
450.376 3.99033e-06 
450.906 3.99014e-06 
451.437 3.98994e-06 
451.967 3.98973e-06 
452.497 3.98951e-06 
453.027 3.98928e-06 
453.558 3.98904e-06 
454.088 3.98879e-06 
454.618 3.98853e-06 
455.148 3.98826e-06 
455.679 3.98798e-06 
456.209 3.98768e-06 
456.739 3.98738e-06 
457.27 3.98707e-06 
457.8 3.98675e-06 
458.33 3.98642e-06 
458.86 3.98608e-06 
459.391 3.98574e-06 
459.921 3.98538e-06 
460.451 3.98502e-06 
460.981 3.98466e-06 
461.512 3.9843e-06 
462.042 3.98394e-06 
462.572 3.98357e-06 
463.103 3.98322e-06 
463.633 3.98287e-06 
464.163 3.98253e-06 
464.693 3.98222e-06 
465.224 3.98193e-06 
465.754 3.98167e-06 
466.284 3.98145e-06 
466.814 3.98128e-06 
467.345 3.98118e-06 
467.875 3.98117e-06 
468.405 3.98126e-06 
468.936 3.98149e-06 
469.466 3.98189e-06 
469.996 3.9825e-06 
470.526 3.98339e-06 
471.057 3.98464e-06 
471.587 3.98632e-06 
472.117 3.98858e-06 
472.647 3.99155e-06 
473.178 3.99541e-06 
473.708 4.00036e-06 
474.238 4.00652e-06 
474.769 4.01389e-06 
475.299 4.02208e-06 
475.829 4.03011e-06 
476.359 4.03628e-06 
476.89 4.03869e-06 
477.42 4.03626e-06 
477.95 4.02948e-06 
478.48 4.02005e-06 
479.011 4.00985e-06 
479.541 4.00015e-06 
480.071 3.99157e-06 
480.602 3.98424e-06 
481.132 3.97808e-06 
481.662 3.97292e-06 
482.192 3.96858e-06 
482.723 3.96491e-06 
483.253 3.96178e-06 
483.783 3.95911e-06 
484.313 3.9568e-06 
484.844 3.95482e-06 
485.374 3.95313e-06 
485.904 3.95171e-06 
486.435 3.95057e-06 
486.965 3.94969e-06 
487.495 3.94911e-06 
488.025 3.94886e-06 
488.556 3.94899e-06 
489.086 3.94957e-06 
489.616 3.95069e-06 
490.146 3.95248e-06 
490.677 3.95509e-06 
491.207 3.95875e-06 
491.737 3.96371e-06 
492.268 3.9703e-06 
492.798 3.97891e-06 
493.328 3.9899e-06 
493.858 4.00354e-06 
494.389 4.01965e-06 
494.919 4.03716e-06 
495.449 4.05365e-06 
495.979 4.06531e-06 
496.51 4.06831e-06 
497.04 4.06104e-06 
497.57 4.04529e-06 
498.101 4.02492e-06 
498.631 4.00366e-06 
499.161 3.98389e-06 
499.691 3.96663e-06 
500.222 3.95202e-06 
500.752 3.93984e-06 
501.282 3.9297e-06 
501.812 3.92125e-06 
502.343 3.91417e-06 
502.873 3.90821e-06 
503.403 3.90318e-06 
503.934 3.89894e-06 
504.464 3.8954e-06 
504.994 3.89248e-06 
505.524 3.89015e-06 
506.055 3.88842e-06 
506.585 3.88729e-06 
507.115 3.88683e-06 
507.646 3.88709e-06 
508.176 3.88821e-06 
508.706 3.89032e-06 
509.236 3.89364e-06 
509.767 3.89844e-06 
510.297 3.90507e-06 
510.827 3.914e-06 
511.357 3.92579e-06 
511.888 3.94116e-06 
512.418 3.96089e-06 
512.948 3.98574e-06 
513.479 4.01609e-06 
514.009 4.05125e-06 
514.539 4.08846e-06 
515.069 4.12197e-06 
515.6 4.14356e-06 
516.13 4.146e-06 
516.66 4.12755e-06 
517.19 4.09321e-06 
517.721 4.05122e-06 
518.251 4.00874e-06 
518.781 3.96997e-06 
519.312 3.93649e-06 
519.842 3.90837e-06 
520.372 3.885e-06 
520.902 3.86557e-06 
521.433 3.84933e-06 
521.963 3.83562e-06 
522.493 3.82392e-06 
523.023 3.81382e-06 
523.554 3.80499e-06 
524.084 3.79718e-06 
524.614 3.7902e-06 
525.145 3.78388e-06 
525.675 3.7781e-06 
526.205 3.77277e-06 
526.735 3.76781e-06 
527.266 3.76316e-06 
527.796 3.75876e-06 
528.326 3.75457e-06 
528.856 3.75057e-06 
529.387 3.74672e-06 
529.917 3.74299e-06 
530.447 3.73938e-06 
530.978 3.73585e-06 
531.508 3.7324e-06 
532.038 3.72902e-06 
532.568 3.72569e-06 
533.099 3.7224e-06 
533.629 3.71916e-06 
534.159 3.71594e-06 
534.689 3.71276e-06 
535.22 3.70959e-06 
535.75 3.70644e-06 
536.28 3.7033e-06 
536.811 3.70017e-06 
537.341 3.69704e-06 
537.871 3.69392e-06 
538.401 3.69081e-06 
538.932 3.68769e-06 
539.462 3.68458e-06 
539.992 3.68147e-06 
540.522 3.67835e-06 
541.053 3.67524e-06 
541.583 3.67213e-06 
542.113 3.66902e-06 
542.644 3.66591e-06 
543.174 3.66281e-06 
543.704 3.65972e-06 
544.234 3.65665e-06 
544.765 3.6536e-06 
545.295 3.65059e-06 
545.825 3.64762e-06 
546.355 3.6447e-06 
546.886 3.64185e-06 
547.416 3.63911e-06 
547.946 3.63649e-06 
548.477 3.63404e-06 
549.007 3.6318e-06 
549.537 3.62984e-06 
550.067 3.62822e-06 
550.598 3.62703e-06 
551.128 3.62632e-06 
551.658 3.62612e-06 
552.188 3.62631e-06 
552.719 3.62653e-06 
553.249 3.62617e-06 
553.779 3.62442e-06 
554.31 3.62077e-06 
554.84 3.61526e-06 
555.37 3.60852e-06 
555.9 3.60133e-06 
556.431 3.59427e-06 
556.961 3.58763e-06 
557.491 3.58152e-06 
558.021 3.57591e-06 
558.552 3.57073e-06 
559.082 3.56593e-06 
559.612 3.56143e-06 
560.143 3.5572e-06 
560.673 3.55319e-06 
561.203 3.54939e-06 
561.733 3.5458e-06 
562.264 3.54243e-06 
562.794 3.53929e-06 
563.324 3.53641e-06 
563.854 3.53382e-06 
564.385 3.53155e-06 
564.915 3.52955e-06 
565.445 3.52771e-06 
565.976 3.52574e-06 
566.506 3.52322e-06 
567.036 3.51973e-06 
567.566 3.51513e-06 
568.097 3.5096e-06 
568.627 3.50358e-06 
569.157 3.49747e-06 
569.688 3.4915e-06 
570.218 3.48578e-06 
570.748 3.48033e-06 
571.278 3.47511e-06 
571.809 3.47009e-06 
572.339 3.46521e-06 
572.869 3.46044e-06 
573.399 3.45574e-06 
573.93 3.45111e-06 
574.46 3.4465e-06 
574.99 3.44192e-06 
575.521 3.43735e-06 
576.051 3.43278e-06 
576.581 3.4282e-06 
577.111 3.42361e-06 
577.642 3.41901e-06 
578.172 3.41439e-06 
578.702 3.40976e-06 
579.232 3.40511e-06 
579.763 3.40045e-06 
580.293 3.39577e-06 
580.823 3.39109e-06 
581.354 3.38641e-06 
581.884 3.38173e-06 
582.414 3.37707e-06 
582.944 3.37244e-06 
583.475 3.36786e-06 
584.005 3.36333e-06 
584.535 3.3589e-06 
585.065 3.35458e-06 
585.596 3.35043e-06 
586.126 3.34647e-06 
586.656 3.34279e-06 
587.187 3.33945e-06 
587.717 3.33656e-06 
588.247 3.33425e-06 
588.777 3.33268e-06 
589.308 3.33207e-06 
589.838 3.33265e-06 
590.368 3.33472e-06 
590.898 3.33856e-06 
591.429 3.34432e-06 
591.959 3.35182e-06 
592.489 3.36018e-06 
593.02 3.3675e-06 
593.55 3.37099e-06 
594.08 3.36805e-06 
594.61 3.35788e-06 
595.141 3.34202e-06 
595.671 3.3233e-06 
596.201 3.30429e-06 
596.731 3.28656e-06 
597.262 3.27077e-06 
597.792 3.25699e-06 
598.322 3.24505e-06 
598.853 3.2347e-06 
599.383 3.22571e-06 
599.913 3.2179e-06 
600.443 3.21114e-06 
600.974 3.20537e-06 
601.504 3.20059e-06 
602.034 3.19686e-06 
602.564 3.19427e-06 
603.095 3.193e-06 
603.625 3.19323e-06 
604.155 3.19514e-06 
604.686 3.19881e-06 
605.216 3.20396e-06 
605.746 3.2097e-06 
606.276 3.21429e-06 
606.807 3.21539e-06 
607.337 3.21105e-06 
607.867 3.20086e-06 
608.397 3.1862e-06 
608.928 3.16934e-06 
609.458 3.15233e-06 
609.988 3.1364e-06 
610.519 3.12205e-06 
611.049 3.10931e-06 
611.579 3.09803e-06 
612.109 3.08797e-06 
612.64 3.07889e-06 
613.17 3.07063e-06 
613.7 3.06301e-06 
614.23 3.05595e-06 
614.761 3.04936e-06 
615.291 3.04318e-06 
615.821 3.0374e-06 
616.352 3.03201e-06 
616.882 3.02704e-06 
617.412 3.02248e-06 
617.942 3.01837e-06 
618.473 3.01461e-06 
619.003 3.01102e-06 
619.533 3.0072e-06 
620.063 3.00259e-06 
620.594 2.99666e-06 
621.124 2.98925e-06 
621.654 2.98067e-06 
622.185 2.97147e-06 
622.715 2.96213e-06 
623.245 2.95295e-06 
623.775 2.94404e-06 
624.306 2.93542e-06 
624.836 2.92702e-06 
625.366 2.91881e-06 
625.896 2.91071e-06 
626.427 2.90268e-06 
626.957 2.89468e-06 
627.487 2.88668e-06 
628.018 2.87865e-06 
628.548 2.87059e-06 
629.078 2.86247e-06 
629.608 2.8543e-06 
630.139 2.84607e-06 
630.669 2.83779e-06 
631.199 2.82946e-06 
631.729 2.82109e-06 
632.26 2.81271e-06 
632.79 2.80434e-06 
633.32 2.79601e-06 
633.851 2.78778e-06 
634.381 2.77969e-06 
634.911 2.77184e-06 
635.441 2.76434e-06 
635.972 2.75736e-06 
636.502 2.75115e-06 
637.032 2.74605e-06 
637.562 2.74266e-06 
638.093 2.74192e-06 
638.623 2.74551e-06 
639.153 2.75666e-06 
639.684 2.78212e-06 
640.214 2.83781e-06 
640.744 2.96614e-06 
641.274 3.27791e-06 
641.805 3.75499e-06 
642.335 3.59575e-06 
642.865 3.16498e-06 
643.396 2.91271e-06 
643.926 2.8055e-06 
644.456 2.75922e-06 
644.986 2.74065e-06 
645.517 2.73674e-06 
646.047 2.7408e-06 
646.577 2.74759e-06 
647.107 2.75189e-06 
647.638 2.74913e-06 
648.168 2.73703e-06 
648.698 2.7165e-06 
649.229 2.69062e-06 
649.759 2.663e-06 
650.289 2.63643e-06 
650.819 2.61246e-06 
651.35 2.59162e-06 
651.88 2.57383e-06 
652.41 2.55874e-06 
652.94 2.54596e-06 
653.471 2.53514e-06 
654.001 2.52599e-06 
654.531 2.51834e-06 
655.062 2.51206e-06 
655.592 2.50713e-06 
656.122 2.50359e-06 
656.652 2.50152e-06 
657.183 2.50107e-06 
657.713 2.50237e-06 
658.243 2.50539e-06 
658.773 2.50981e-06 
659.304 2.51469e-06 
659.834 2.51835e-06 
660.364 2.51874e-06 
660.895 2.51432e-06 
661.425 2.50488e-06 
661.955 2.49163e-06 
662.485 2.4764e-06 
663.016 2.46091e-06 
663.546 2.44629e-06 
664.076 2.43305e-06 
664.606 2.42128e-06 
665.137 2.41087e-06 
665.667 2.40159e-06 
666.197 2.39325e-06 
666.728 2.38565e-06 
667.258 2.37864e-06 
667.788 2.3721e-06 
668.318 2.36593e-06 
668.849 2.36006e-06 
669.379 2.35441e-06 
669.909 2.34895e-06 
670.439 2.34363e-06 
670.97 2.33843e-06 
671.5 2.33331e-06 
672.03 2.32827e-06 
672.561 2.32328e-06 
673.091 2.31832e-06 
673.621 2.31339e-06 
674.151 2.30847e-06 
674.682 2.30356e-06 
675.212 2.29864e-06 
675.742 2.29371e-06 
676.272 2.28877e-06 
676.803 2.28381e-06 
677.333 2.27882e-06 
677.863 2.2738e-06 
678.394 2.26875e-06 
678.924 2.26366e-06 
679.454 2.25853e-06 
679.984 2.25336e-06 
680.515 2.24814e-06 
681.045 2.24288e-06 
681.575 2.23757e-06 
682.105 2.23221e-06 
682.636 2.22681e-06 
683.166 2.22135e-06 
683.696 2.21585e-06 
684.227 2.2103e-06 
684.757 2.20471e-06 
685.287 2.19909e-06 
685.817 2.19343e-06 
686.348 2.18774e-06 
686.878 2.18203e-06 
687.408 2.17631e-06 
687.938 2.17059e-06 
688.469 2.16489e-06 
688.999 2.15922e-06 
689.529 2.15361e-06 
690.06 2.14809e-06 
690.59 2.14268e-06 
691.12 2.13743e-06 
691.65 2.1324e-06 
692.181 2.12763e-06 
692.711 2.12322e-06 
693.241 2.11927e-06 
693.771 2.1159e-06 
694.302 2.11327e-06 
694.832 2.1116e-06 
695.362 2.11114e-06 
695.893 2.11224e-06 
696.423 2.11532e-06 
696.953 2.1209e-06 
697.483 2.12955e-06 
698.014 2.14182e-06 
698.544 2.15804e-06 
699.074 2.17781e-06 
699.604 2.19942e-06 
700.135 2.21919e-06 
700.665 2.23192e-06 
701.195 2.23274e-06 
701.726 2.21973e-06 
702.256 2.19491e-06 
702.786 2.16285e-06 
703.316 2.12847e-06 
703.847 2.09544e-06 
704.377 2.06572e-06 
704.907 2.03996e-06 
705.438 2.01803e-06 
705.968 1.99949e-06 
706.498 1.98384e-06 
707.028 1.97064e-06 
707.559 1.95954e-06 
708.089 1.9503e-06 
708.619 1.9428e-06 
709.149 1.937e-06 
709.68 1.93296e-06 
710.21 1.9308e-06 
710.74 1.93071e-06 
711.271 1.93282e-06 
711.801 1.9371e-06 
712.331 1.94305e-06 
712.861 1.94937e-06 
713.392 1.95388e-06 
713.922 1.95398e-06 
714.452 1.94788e-06 
714.982 1.93553e-06 
715.513 1.91855e-06 
716.043 1.89931e-06 
716.573 1.87992e-06 
717.104 1.86173e-06 
717.634 1.84534e-06 
718.164 1.83084e-06 
718.694 1.81806e-06 
719.225 1.80674e-06 
719.755 1.79663e-06 
720.285 1.7875e-06 
720.815 1.77918e-06 
721.346 1.77153e-06 
721.876 1.76445e-06 
722.406 1.75786e-06 
722.937 1.75172e-06 
723.467 1.74602e-06 
723.997 1.74074e-06 
724.527 1.73592e-06 
725.058 1.73161e-06 
725.588 1.72787e-06 
726.118 1.72479e-06 
726.648 1.72248e-06 
727.179 1.72102e-06 
727.709 1.72039e-06 
728.239 1.72037e-06 
728.77 1.72038e-06 
729.3 1.71939e-06 
729.83 1.71622e-06 
730.36 1.71015e-06 
730.891 1.70134e-06 
731.421 1.69078e-06 
731.951 1.6796e-06 
732.481 1.66866e-06 
733.012 1.6584e-06 
733.542 1.64891e-06 
734.072 1.64017e-06 
734.603 1.63205e-06 
735.133 1.62444e-06 
735.663 1.61723e-06 
736.193 1.61032e-06 
736.724 1.60364e-06 
737.254 1.59713e-06 
737.784 1.59074e-06 
738.314 1.58444e-06 
738.845 1.57819e-06 
739.375 1.57196e-06 
739.905 1.56574e-06 
740.436 1.5595e-06 
740.966 1.55323e-06 
741.496 1.54692e-06 
742.026 1.54054e-06 
742.557 1.53409e-06 
743.087 1.52756e-06 
743.617 1.52094e-06 
744.147 1.51421e-06 
744.678 1.50737e-06 
745.208 1.5004e-06 
745.738 1.49329e-06 
746.269 1.48604e-06 
746.799 1.47863e-06 
747.329 1.47106e-06 
747.859 1.46332e-06 
748.39 1.4554e-06 
748.92 1.44729e-06 
749.45 1.43897e-06 
749.98 1.43045e-06 
750.511 1.42172e-06 
751.041 1.41276e-06 
751.571 1.40357e-06 
752.102 1.39415e-06 
752.632 1.38449e-06 
753.162 1.37458e-06 
753.692 1.36443e-06 
754.223 1.35403e-06 
754.753 1.34338e-06 
755.283 1.33249e-06 
755.813 1.32138e-06 
756.344 1.31004e-06 
756.874 1.2985e-06 
757.404 1.2868e-06 
757.935 1.27495e-06 
758.465 1.26303e-06 
758.995 1.25109e-06 
759.525 1.23925e-06 
760.056 1.22766e-06 
760.586 1.21652e-06 
761.116 1.20616e-06 
761.646 1.19707e-06 
762.177 1.19005e-06 
762.707 1.1864e-06 
763.237 1.18849e-06 
763.768 1.20081e-06 
764.298 1.23271e-06 
764.828 1.30612e-06 
765.358 1.47884e-06 
765.889 1.90419e-06 
766.419 2.62158e-06 
766.949 2.56399e-06 
767.479 1.90079e-06 
768.01 1.42699e-06 
768.54 1.21148e-06 
769.07 1.10357e-06 
769.601 1.04035e-06 
770.131 9.9818e-07 
770.661 9.67137e-07 
771.191 9.42622e-07 
771.722 9.22332e-07 
772.252 9.05083e-07 
772.782 8.90339e-07 
773.312 8.77978e-07 
773.843 8.68211e-07 
774.373 8.61608e-07 
774.903 8.59256e-07 
775.434 8.63033e-07 
775.964 8.76206e-07 
776.494 9.04766e-07 
777.024 9.60481e-07 
777.555 1.06874e-06 
778.085 1.29105e-06 
778.615 1.79421e-06 
779.146 2.97075e-06 
779.676 4.28779e-06 
780.206 3.62649e-06 
780.736 2.23068e-06 
781.267 1.45685e-06 
781.797 1.12078e-06 
782.327 9.59321e-07 
782.857 8.71423e-07 
783.388 8.16887e-07 
783.918 7.77942e-07 
784.448 7.4679e-07 
784.979 7.20513e-07 
785.509 6.98242e-07 
786.039 6.79626e-07 
786.569 6.64279e-07 
787.1 6.51719e-07 
787.63 6.41451e-07 
788.16 6.33026e-07 
788.69 6.26068e-07 
789.221 6.20278e-07 
789.751 6.1542e-07 
790.281 6.11308e-07 
790.812 6.078e-07 
791.342 6.04784e-07 
791.872 6.02174e-07 
792.402 5.99898e-07 
792.933 5.97903e-07 
793.463 5.96144e-07 
793.993 5.94585e-07 
794.523 5.93196e-07 
795.054 5.91954e-07 
795.584 5.90838e-07 
796.114 5.89832e-07 
796.645 5.88922e-07 
797.175 5.88096e-07 
797.705 5.87344e-07 
798.235 5.86657e-07 
798.766 5.86028e-07 
799.296 5.8545e-07 
799.826 5.84918e-07 
800.356 5.84427e-07 
800.887 5.83972e-07 
801.417 5.83551e-07 
801.947 5.83158e-07 
802.478 5.82792e-07 
803.008 5.8245e-07 
803.538 5.82129e-07 
804.068 5.81827e-07 
804.599 5.81542e-07 
805.129 5.81272e-07 
805.659 5.81015e-07 
806.189 5.8077e-07 
806.72 5.80535e-07 
807.25 5.8031e-07 
807.78 5.80093e-07 
808.311 5.79881e-07 
808.841 5.79675e-07 
809.371 5.79474e-07 
809.901 5.79276e-07 
810.432 5.79081e-07 
810.962 5.78887e-07 
811.492 5.78694e-07 
812.022 5.785e-07 
812.553 5.78306e-07 
813.083 5.78111e-07 
813.613 5.77914e-07 
814.144 5.77714e-07 
814.674 5.77511e-07 
815.204 5.77304e-07 
815.734 5.77094e-07 
816.265 5.7688e-07 
816.795 5.76661e-07 
817.325 5.76439e-07 
817.855 5.76211e-07 
818.386 5.7598e-07 
818.916 5.75746e-07 
819.446 5.75508e-07 
819.977 5.75267e-07 
820.507 5.75026e-07 
821.037 5.74784e-07 
821.567 5.74544e-07 
822.098 5.74307e-07 
822.628 5.74076e-07 
823.158 5.73855e-07 
823.688 5.73645e-07 
824.219 5.73453e-07 
824.749 5.73283e-07 
825.279 5.73141e-07 
825.81 5.73037e-07 
826.34 5.72978e-07 
826.87 5.72978e-07 
827.4 5.73051e-07 
827.931 5.73215e-07 
828.461 5.73493e-07 
828.991 5.73913e-07 
829.521 5.74511e-07 
830.052 5.75334e-07 
830.582 5.7644e-07 
831.112 5.77903e-07 
831.643 5.7982e-07 
832.173 5.82311e-07 
832.703 5.85523e-07 
833.233 5.89626e-07 
833.764 5.94794e-07 
834.294 6.01145e-07 
834.824 6.08625e-07 
835.354 6.1681e-07 
835.885 6.24691e-07 
836.415 6.30673e-07 
836.945 6.33084e-07 
837.476 6.31102e-07 
838.006 6.25298e-07 
838.536 6.17248e-07 
839.066 6.08612e-07 
839.597 6.0053e-07 
840.127 5.93529e-07 
840.657 5.87725e-07 
841.188 5.83025e-07 
841.718 5.79262e-07 
842.248 5.76265e-07 
842.778 5.73883e-07 
843.309 5.7199e-07 
843.839 5.70489e-07 
844.369 5.69299e-07 
844.899 5.68361e-07 
845.43 5.67627e-07 
845.96 5.6706e-07 
846.49 5.6663e-07 
847.021 5.66313e-07 
847.551 5.66093e-07 
848.081 5.65953e-07 
848.611 5.65882e-07 
849.142 5.65869e-07 
849.672 5.65907e-07 
850.202 5.65988e-07 
850.732 5.66107e-07 
851.263 5.6626e-07 
851.793 5.66442e-07 
852.323 5.6665e-07 
852.854 5.66882e-07 
853.384 5.67134e-07 
853.914 5.67405e-07 
854.444 5.67694e-07 
854.975 5.67998e-07 
855.505 5.68316e-07 
856.035 5.68647e-07 
856.565 5.6899e-07 
857.096 5.69344e-07 
857.626 5.69708e-07 
858.156 5.70082e-07 
858.687 5.70464e-07 
859.217 5.70855e-07 
859.747 5.71254e-07 
860.277 5.71661e-07 
860.808 5.72074e-07 
861.338 5.72495e-07 
861.868 5.72921e-07 
862.398 5.73354e-07 
862.929 5.73792e-07 
863.459 5.74237e-07 
863.989 5.74686e-07 
864.52 5.75141e-07 
865.05 5.75601e-07 
865.58 5.76065e-07 
866.11 5.76535e-07 
866.641 5.77009e-07 
867.171 5.77488e-07 
867.701 5.77971e-07 
868.231 5.78458e-07 
868.762 5.7895e-07 
869.292 5.79445e-07 
869.822 5.79945e-07 
870.353 5.80449e-07 
870.883 5.80957e-07 
871.413 5.81469e-07 
871.943 5.81984e-07 
872.474 5.82503e-07 
873.004 5.83027e-07 
873.534 5.83554e-07 
874.064 5.84084e-07 
874.595 5.84619e-07 
875.125 5.85157e-07 
875.655 5.85698e-07 
876.186 5.86244e-07 
876.716 5.86792e-07 
877.246 5.87345e-07 
877.776 5.87902e-07 
878.307 5.88461e-07 
878.837 5.89024e-07 
879.367 5.89591e-07 
879.897 5.90161e-07 
880.428 5.90735e-07 
880.958 5.91312e-07 
881.488 5.91893e-07 
882.019 5.92477e-07 
882.549 5.93065e-07 
883.079 5.93657e-07 
883.609 5.94251e-07 
884.14 5.94849e-07 
884.67 5.95451e-07 
885.2 5.96056e-07 
885.73 5.96664e-07 
886.261 5.97275e-07 
886.791 5.97891e-07 
887.321 5.98509e-07 
887.852 5.9913e-07 
888.382 5.99754e-07 
888.912 6.00382e-07 
889.442 6.01013e-07 
889.973 6.01646e-07 
890.503 6.02282e-07 
891.033 6.02922e-07 
891.563 6.03563e-07 
892.094 6.04208e-07 
892.624 6.04854e-07 
893.154 6.05503e-07 
893.685 6.06154e-07 
894.215 6.06807e-07 
894.745 6.07461e-07 
895.275 6.08117e-07 
895.806 6.08774e-07 
896.336 6.09432e-07 
896.866 6.10091e-07 
897.396 6.10751e-07 
897.927 6.1141e-07 
898.457 6.12068e-07 
898.987 6.12726e-07 
899.518 6.13383e-07 
900.048 6.14038e-07 
900.578 6.14691e-07 
901.108 6.15341e-07 
901.639 6.15987e-07 
902.169 6.1663e-07 
902.699 6.17268e-07 
903.229 6.179e-07 
903.76 6.18526e-07 
904.29 6.19145e-07 
904.82 6.19755e-07 
905.351 6.20357e-07 
905.881 6.20949e-07 
906.411 6.21529e-07 
906.941 6.22098e-07 
907.472 6.22652e-07 
908.002 6.23192e-07 
908.532 6.23715e-07 
909.062 6.24221e-07 
