#energy geo_1 
400 3.87286e-06 
400.53 3.87278e-06 
401.061 3.87269e-06 
401.591 3.8726e-06 
402.121 3.87249e-06 
402.651 3.87239e-06 
403.182 3.87228e-06 
403.712 3.87216e-06 
404.242 3.87204e-06 
404.772 3.87191e-06 
405.303 3.87177e-06 
405.833 3.87163e-06 
406.363 3.87148e-06 
406.894 3.87133e-06 
407.424 3.87117e-06 
407.954 3.87101e-06 
408.484 3.87084e-06 
409.015 3.87066e-06 
409.545 3.87048e-06 
410.075 3.87029e-06 
410.605 3.87009e-06 
411.136 3.86989e-06 
411.666 3.86969e-06 
412.196 3.86947e-06 
412.727 3.86926e-06 
413.257 3.86903e-06 
413.787 3.8688e-06 
414.317 3.86856e-06 
414.848 3.86832e-06 
415.378 3.86807e-06 
415.908 3.86781e-06 
416.438 3.86755e-06 
416.969 3.86728e-06 
417.499 3.867e-06 
418.029 3.86672e-06 
418.56 3.86643e-06 
419.09 3.86614e-06 
419.62 3.86583e-06 
420.15 3.86553e-06 
420.681 3.86521e-06 
421.211 3.86489e-06 
421.741 3.86456e-06 
422.271 3.86423e-06 
422.802 3.86389e-06 
423.332 3.86354e-06 
423.862 3.86318e-06 
424.393 3.86282e-06 
424.923 3.86245e-06 
425.453 3.86207e-06 
425.983 3.86169e-06 
426.514 3.8613e-06 
427.044 3.8609e-06 
427.574 3.8605e-06 
428.104 3.86009e-06 
428.635 3.85967e-06 
429.165 3.85924e-06 
429.695 3.85881e-06 
430.226 3.85837e-06 
430.756 3.85792e-06 
431.286 3.85746e-06 
431.816 3.857e-06 
432.347 3.85653e-06 
432.877 3.85605e-06 
433.407 3.85556e-06 
433.938 3.85507e-06 
434.468 3.85457e-06 
434.998 3.85406e-06 
435.528 3.85354e-06 
436.059 3.85301e-06 
436.589 3.85248e-06 
437.119 3.85194e-06 
437.649 3.85139e-06 
438.18 3.85083e-06 
438.71 3.85026e-06 
439.24 3.84968e-06 
439.771 3.8491e-06 
440.301 3.84851e-06 
440.831 3.8479e-06 
441.361 3.84729e-06 
441.892 3.84667e-06 
442.422 3.84604e-06 
442.952 3.84539e-06 
443.482 3.84475e-06 
444.013 3.84409e-06 
444.543 3.84341e-06 
445.073 3.84273e-06 
445.604 3.84204e-06 
446.134 3.84134e-06 
446.664 3.84063e-06 
447.194 3.83991e-06 
447.725 3.83918e-06 
448.255 3.83843e-06 
448.785 3.83768e-06 
449.315 3.83691e-06 
449.846 3.83613e-06 
450.376 3.83535e-06 
450.906 3.83455e-06 
451.437 3.83373e-06 
451.967 3.83291e-06 
452.497 3.83207e-06 
453.027 3.83122e-06 
453.558 3.83036e-06 
454.088 3.82949e-06 
454.618 3.82861e-06 
455.148 3.82771e-06 
455.679 3.8268e-06 
456.209 3.82588e-06 
456.739 3.82495e-06 
457.27 3.82401e-06 
457.8 3.82306e-06 
458.33 3.8221e-06 
458.86 3.82112e-06 
459.391 3.82014e-06 
459.921 3.81916e-06 
460.451 3.81816e-06 
460.981 3.81717e-06 
461.512 3.81617e-06 
462.042 3.81517e-06 
462.572 3.81417e-06 
463.103 3.81317e-06 
463.633 3.81219e-06 
464.163 3.81122e-06 
464.693 3.81027e-06 
465.224 3.80934e-06 
465.754 3.80845e-06 
466.284 3.8076e-06 
466.814 3.80681e-06 
467.345 3.80609e-06 
467.875 3.80546e-06 
468.405 3.80495e-06 
468.936 3.80459e-06 
469.466 3.8044e-06 
469.996 3.80445e-06 
470.526 3.8048e-06 
471.057 3.80552e-06 
471.587 3.80672e-06 
472.117 3.80853e-06 
472.647 3.81112e-06 
473.178 3.81466e-06 
473.708 3.81936e-06 
474.238 3.82538e-06 
474.769 3.83269e-06 
475.299 3.84088e-06 
475.829 3.8489e-06 
476.359 3.85492e-06 
476.89 3.85692e-06 
477.42 3.85371e-06 
477.95 3.84582e-06 
478.48 3.8351e-06 
479.011 3.82354e-06 
479.541 3.81253e-06 
480.071 3.80271e-06 
480.602 3.79424e-06 
481.132 3.78703e-06 
481.662 3.78089e-06 
482.192 3.77563e-06 
482.723 3.77109e-06 
483.253 3.76712e-06 
483.783 3.76364e-06 
484.313 3.76055e-06 
484.844 3.7578e-06 
485.374 3.75537e-06 
485.904 3.75321e-06 
486.435 3.75133e-06 
486.965 3.74974e-06 
487.495 3.74845e-06 
488.025 3.74749e-06 
488.556 3.74691e-06 
489.086 3.74679e-06 
489.616 3.7472e-06 
490.146 3.74829e-06 
490.677 3.75021e-06 
491.207 3.75316e-06 
491.737 3.75742e-06 
492.268 3.76332e-06 
492.798 3.77122e-06 
493.328 3.78151e-06 
493.858 3.79443e-06 
494.389 3.80982e-06 
494.919 3.82662e-06 
495.449 3.84239e-06 
495.979 3.85335e-06 
496.51 3.85567e-06 
497.04 3.84774e-06 
497.57 3.83135e-06 
498.101 3.81036e-06 
498.631 3.78848e-06 
499.161 3.76808e-06 
499.691 3.75019e-06 
500.222 3.73495e-06 
500.752 3.72213e-06 
501.282 3.71135e-06 
501.812 3.70226e-06 
502.343 3.69453e-06 
502.873 3.68792e-06 
503.403 3.68224e-06 
503.934 3.67736e-06 
504.464 3.67316e-06 
504.994 3.66959e-06 
505.524 3.66661e-06 
506.055 3.66423e-06 
506.585 3.66245e-06 
507.115 3.66133e-06 
507.646 3.66095e-06 
508.176 3.66141e-06 
508.706 3.66288e-06 
509.236 3.66555e-06 
509.767 3.66971e-06 
510.297 3.6757e-06 
510.827 3.68398e-06 
511.357 3.69514e-06 
511.888 3.70988e-06 
512.418 3.729e-06 
512.948 3.75324e-06 
513.479 3.78298e-06 
514.009 3.81755e-06 
514.539 3.85417e-06 
515.069 3.88709e-06 
515.6 3.90809e-06 
516.13 3.90992e-06 
516.66 3.89084e-06 
517.19 3.85585e-06 
517.721 3.81322e-06 
518.251 3.77011e-06 
518.781 3.7307e-06 
519.312 3.6966e-06 
519.842 3.66786e-06 
520.372 3.64389e-06 
520.902 3.62386e-06 
521.433 3.60703e-06 
521.963 3.59273e-06 
522.493 3.58046e-06 
523.023 3.56979e-06 
523.554 3.56039e-06 
524.084 3.55201e-06 
524.614 3.54447e-06 
525.145 3.53759e-06 
525.675 3.53126e-06 
526.205 3.52538e-06 
526.735 3.51988e-06 
527.266 3.51468e-06 
527.796 3.50974e-06 
528.326 3.50503e-06 
528.856 3.50049e-06 
529.387 3.49611e-06 
529.917 3.49187e-06 
530.447 3.48773e-06 
530.978 3.48369e-06 
531.508 3.47973e-06 
532.038 3.47584e-06 
532.568 3.472e-06 
533.099 3.46822e-06 
533.629 3.46448e-06 
534.159 3.46077e-06 
534.689 3.4571e-06 
535.22 3.45345e-06 
535.75 3.44982e-06 
536.28 3.4462e-06 
536.811 3.4426e-06 
537.341 3.43901e-06 
537.871 3.43543e-06 
538.401 3.43185e-06 
538.932 3.42828e-06 
539.462 3.42471e-06 
539.992 3.42115e-06 
540.522 3.41759e-06 
541.053 3.41402e-06 
541.583 3.41046e-06 
542.113 3.4069e-06 
542.644 3.40335e-06 
543.174 3.3998e-06 
543.704 3.39625e-06 
544.234 3.39271e-06 
544.765 3.38919e-06 
545.295 3.38568e-06 
545.825 3.3822e-06 
546.355 3.37875e-06 
546.886 3.37534e-06 
547.416 3.37199e-06 
547.946 3.36872e-06 
548.477 3.36554e-06 
549.007 3.36249e-06 
549.537 3.35961e-06 
550.067 3.35693e-06 
550.598 3.35451e-06 
551.128 3.35238e-06 
551.658 3.35055e-06 
552.188 3.34895e-06 
552.719 3.34738e-06 
553.249 3.34544e-06 
553.779 3.34267e-06 
554.31 3.33874e-06 
554.84 3.33369e-06 
555.37 3.32789e-06 
555.9 3.32182e-06 
556.431 3.31581e-06 
556.961 3.31006e-06 
557.491 3.30463e-06 
558.021 3.29949e-06 
558.552 3.29461e-06 
559.082 3.28995e-06 
559.612 3.28548e-06 
560.143 3.28115e-06 
560.673 3.27695e-06 
561.203 3.27286e-06 
561.733 3.26889e-06 
562.264 3.26504e-06 
562.794 3.26131e-06 
563.324 3.25771e-06 
563.854 3.25428e-06 
564.385 3.251e-06 
564.915 3.24787e-06 
565.445 3.24482e-06 
565.976 3.2417e-06 
566.506 3.23827e-06 
567.036 3.23433e-06 
567.566 3.2298e-06 
568.097 3.22476e-06 
568.627 3.21946e-06 
569.157 3.2141e-06 
569.688 3.20882e-06 
570.218 3.20366e-06 
570.748 3.19864e-06 
571.278 3.19373e-06 
571.809 3.18892e-06 
572.339 3.18418e-06 
572.869 3.17949e-06 
573.399 3.17483e-06 
573.93 3.17019e-06 
574.46 3.16557e-06 
574.99 3.16094e-06 
575.521 3.15632e-06 
576.051 3.15168e-06 
576.581 3.14703e-06 
577.111 3.14237e-06 
577.642 3.1377e-06 
578.172 3.133e-06 
578.702 3.12829e-06 
579.232 3.12357e-06 
579.763 3.11883e-06 
580.293 3.11408e-06 
580.823 3.10931e-06 
581.354 3.10455e-06 
581.884 3.09978e-06 
582.414 3.09502e-06 
582.944 3.09027e-06 
583.475 3.08555e-06 
584.005 3.08087e-06 
584.535 3.07624e-06 
585.065 3.07169e-06 
585.596 3.06723e-06 
586.126 3.06291e-06 
586.656 3.05876e-06 
587.187 3.05483e-06 
587.717 3.0512e-06 
588.247 3.04794e-06 
588.777 3.04517e-06 
589.308 3.04302e-06 
589.838 3.04165e-06 
590.368 3.04126e-06 
590.898 3.04203e-06 
591.429 3.04406e-06 
591.959 3.04723e-06 
592.489 3.05097e-06 
593.02 3.05403e-06 
593.55 3.05459e-06 
594.08 3.05093e-06 
594.61 3.04255e-06 
595.141 3.03045e-06 
595.671 3.01647e-06 
596.201 3.0023e-06 
596.731 2.98897e-06 
597.262 2.9769e-06 
597.792 2.96615e-06 
598.322 2.95659e-06 
598.853 2.94807e-06 
599.383 2.94041e-06 
599.913 2.9335e-06 
600.443 2.92726e-06 
600.974 2.92164e-06 
601.504 2.91661e-06 
602.034 2.91221e-06 
602.564 2.9085e-06 
603.095 2.90555e-06 
603.625 2.90348e-06 
604.155 2.90239e-06 
604.686 2.90232e-06 
605.216 2.90311e-06 
605.746 2.90426e-06 
606.276 2.90477e-06 
606.807 2.90332e-06 
607.337 2.89876e-06 
607.867 2.89085e-06 
608.397 2.88036e-06 
608.928 2.86861e-06 
609.458 2.85675e-06 
609.988 2.84551e-06 
610.519 2.83517e-06 
611.049 2.82577e-06 
611.579 2.8172e-06 
612.109 2.80933e-06 
612.64 2.80203e-06 
613.17 2.7952e-06 
613.7 2.78874e-06 
614.23 2.78259e-06 
614.761 2.7767e-06 
615.291 2.77106e-06 
615.821 2.76564e-06 
616.352 2.76044e-06 
616.882 2.75548e-06 
617.412 2.75076e-06 
617.942 2.74629e-06 
618.473 2.74203e-06 
619.003 2.73785e-06 
619.533 2.73353e-06 
620.063 2.72874e-06 
620.594 2.72316e-06 
621.124 2.7167e-06 
621.654 2.70954e-06 
622.185 2.702e-06 
622.715 2.69437e-06 
623.245 2.68683e-06 
623.775 2.67944e-06 
624.306 2.6722e-06 
624.836 2.66508e-06 
625.366 2.65806e-06 
625.896 2.65109e-06 
626.427 2.64415e-06 
626.957 2.63722e-06 
627.487 2.63026e-06 
628.018 2.62329e-06 
628.548 2.61627e-06 
629.078 2.60921e-06 
629.608 2.6021e-06 
630.139 2.59495e-06 
630.669 2.58775e-06 
631.199 2.5805e-06 
631.729 2.57323e-06 
632.26 2.56593e-06 
632.79 2.55863e-06 
633.32 2.55134e-06 
633.851 2.54411e-06 
634.381 2.53695e-06 
634.911 2.52994e-06 
635.441 2.52314e-06 
635.972 2.51666e-06 
636.502 2.51065e-06 
637.032 2.50534e-06 
637.562 2.5011e-06 
638.093 2.49852e-06 
638.623 2.49869e-06 
639.153 2.50362e-06 
639.684 2.51759e-06 
640.214 2.55067e-06 
640.744 2.62963e-06 
641.274 2.82453e-06 
641.805 3.12391e-06 
642.335 3.02137e-06 
642.865 2.74736e-06 
643.396 2.58617e-06 
643.926 2.51666e-06 
644.456 2.48566e-06 
644.986 2.4722e-06 
645.517 2.46801e-06 
646.047 2.46886e-06 
646.577 2.47145e-06 
647.107 2.47245e-06 
647.638 2.46895e-06 
648.168 2.45952e-06 
648.698 2.44474e-06 
649.229 2.42658e-06 
649.759 2.40732e-06 
650.289 2.38875e-06 
650.819 2.37184e-06 
651.35 2.35693e-06 
651.88 2.34397e-06 
652.41 2.33274e-06 
652.94 2.32298e-06 
653.471 2.31449e-06 
654.001 2.30708e-06 
654.531 2.30065e-06 
655.062 2.29512e-06 
655.592 2.29049e-06 
656.122 2.28679e-06 
656.652 2.2841e-06 
657.183 2.28252e-06 
657.713 2.28213e-06 
658.243 2.28293e-06 
658.773 2.28467e-06 
659.304 2.28668e-06 
659.834 2.28777e-06 
660.364 2.28649e-06 
660.895 2.28181e-06 
661.425 2.27363e-06 
661.955 2.26288e-06 
662.485 2.25086e-06 
663.016 2.23874e-06 
663.546 2.22727e-06 
664.076 2.21678e-06 
664.606 2.2073e-06 
665.137 2.19875e-06 
665.667 2.19098e-06 
666.197 2.18385e-06 
666.728 2.17721e-06 
667.258 2.17098e-06 
667.788 2.16507e-06 
668.318 2.1594e-06 
668.849 2.15393e-06 
669.379 2.14862e-06 
669.909 2.14343e-06 
670.439 2.13834e-06 
670.97 2.13333e-06 
671.5 2.12838e-06 
672.03 2.12347e-06 
672.561 2.11859e-06 
673.091 2.11374e-06 
673.621 2.10891e-06 
674.151 2.10408e-06 
674.682 2.09926e-06 
675.212 2.09443e-06 
675.742 2.0896e-06 
676.272 2.08475e-06 
676.803 2.07989e-06 
677.333 2.07501e-06 
677.863 2.07011e-06 
678.394 2.06519e-06 
678.924 2.06024e-06 
679.454 2.05526e-06 
679.984 2.05025e-06 
680.515 2.04521e-06 
681.045 2.04014e-06 
681.575 2.03504e-06 
682.105 2.0299e-06 
682.636 2.02472e-06 
683.166 2.01952e-06 
683.696 2.01427e-06 
684.227 2.009e-06 
684.757 2.00369e-06 
685.287 1.99835e-06 
685.817 1.99298e-06 
686.348 1.98759e-06 
686.878 1.98218e-06 
687.408 1.97675e-06 
687.938 1.97132e-06 
688.469 1.96589e-06 
688.999 1.96047e-06 
689.529 1.95507e-06 
690.06 1.94971e-06 
690.59 1.94441e-06 
691.12 1.9392e-06 
691.65 1.93409e-06 
692.181 1.92914e-06 
692.711 1.92438e-06 
693.241 1.91987e-06 
693.771 1.9157e-06 
694.302 1.91194e-06 
694.832 1.90873e-06 
695.362 1.90621e-06 
695.893 1.90459e-06 
696.423 1.9041e-06 
696.953 1.90504e-06 
697.483 1.90776e-06 
698.014 1.91257e-06 
698.544 1.91966e-06 
699.074 1.92881e-06 
699.604 1.93904e-06 
700.135 1.94825e-06 
700.665 1.95343e-06 
701.195 1.95179e-06 
701.726 1.94218e-06 
702.256 1.92573e-06 
702.786 1.90507e-06 
703.316 1.88304e-06 
703.847 1.86177e-06 
704.377 1.84242e-06 
704.907 1.82538e-06 
705.438 1.81058e-06 
705.968 1.79777e-06 
706.498 1.78667e-06 
707.028 1.77703e-06 
707.559 1.76865e-06 
708.089 1.76143e-06 
708.619 1.75529e-06 
709.149 1.75024e-06 
709.68 1.74634e-06 
710.21 1.7437e-06 
710.74 1.74244e-06 
711.271 1.74269e-06 
711.801 1.74443e-06 
712.331 1.74731e-06 
712.861 1.75042e-06 
713.392 1.75224e-06 
713.922 1.75094e-06 
714.452 1.74527e-06 
714.982 1.73521e-06 
715.513 1.72191e-06 
716.043 1.70703e-06 
716.573 1.69205e-06 
717.104 1.67791e-06 
717.634 1.66504e-06 
718.164 1.65349e-06 
718.694 1.64314e-06 
719.225 1.63382e-06 
719.755 1.62535e-06 
720.285 1.61757e-06 
720.815 1.61035e-06 
721.346 1.60361e-06 
721.876 1.59727e-06 
722.406 1.59128e-06 
722.937 1.58563e-06 
723.467 1.58029e-06 
723.997 1.57528e-06 
724.527 1.57061e-06 
725.058 1.56633e-06 
725.588 1.5625e-06 
726.118 1.55918e-06 
726.648 1.55647e-06 
727.179 1.55443e-06 
727.709 1.55305e-06 
728.239 1.55215e-06 
728.77 1.55128e-06 
729.3 1.54961e-06 
729.83 1.54622e-06 
730.36 1.54051e-06 
730.891 1.53265e-06 
731.421 1.52338e-06 
731.951 1.51364e-06 
732.481 1.50409e-06 
733.012 1.49508e-06 
733.542 1.4867e-06 
734.072 1.47891e-06 
734.603 1.47163e-06 
735.133 1.46475e-06 
735.663 1.4582e-06 
736.193 1.45189e-06 
736.724 1.44578e-06 
737.254 1.4398e-06 
737.784 1.43394e-06 
738.314 1.42814e-06 
738.845 1.4224e-06 
739.375 1.41668e-06 
739.905 1.41098e-06 
740.436 1.40527e-06 
740.966 1.39955e-06 
741.496 1.39381e-06 
742.026 1.38802e-06 
742.557 1.3822e-06 
743.087 1.37631e-06 
743.617 1.37037e-06 
744.147 1.36435e-06 
744.678 1.35825e-06 
745.208 1.35207e-06 
745.738 1.3458e-06 
746.269 1.33942e-06 
746.799 1.33294e-06 
747.329 1.32634e-06 
747.859 1.31962e-06 
748.39 1.31278e-06 
748.92 1.3058e-06 
749.45 1.29867e-06 
749.98 1.2914e-06 
750.511 1.28398e-06 
751.041 1.27639e-06 
751.571 1.26864e-06 
752.102 1.26073e-06 
752.632 1.25264e-06 
753.162 1.24437e-06 
753.692 1.23592e-06 
754.223 1.2273e-06 
754.753 1.2185e-06 
755.283 1.20951e-06 
755.813 1.20036e-06 
756.344 1.19105e-06 
756.874 1.18159e-06 
757.404 1.17199e-06 
757.935 1.1623e-06 
758.465 1.15253e-06 
758.995 1.14274e-06 
759.525 1.13301e-06 
760.056 1.12344e-06 
760.586 1.11417e-06 
761.116 1.10542e-06 
761.646 1.09755e-06 
762.177 1.0911e-06 
762.707 1.08698e-06 
763.237 1.08684e-06 
763.768 1.09378e-06 
764.298 1.11433e-06 
764.828 1.16369e-06 
765.358 1.28202e-06 
765.889 1.5758e-06 
766.419 2.07243e-06 
766.949 2.03101e-06 
767.479 1.56914e-06 
768.01 1.23886e-06 
768.54 1.08796e-06 
769.07 1.01179e-06 
769.601 9.66654e-07 
770.131 9.36126e-07 
770.661 9.13321e-07 
771.191 8.95043e-07 
771.722 8.79694e-07 
772.252 8.66452e-07 
772.782 8.54947e-07 
773.312 8.45098e-07 
773.843 8.37056e-07 
774.373 8.31223e-07 
774.903 8.28365e-07 
775.434 8.29804e-07 
775.964 8.37835e-07 
776.494 8.5667e-07 
777.024 8.94577e-07 
777.555 9.69392e-07 
778.085 1.12433e-06 
778.615 1.47657e-06 
779.146 2.30186e-06 
779.676 3.22599e-06 
780.206 2.76074e-06 
780.736 1.77976e-06 
781.267 1.23575e-06 
781.797 9.99264e-07 
782.327 8.85471e-07 
782.857 8.2343e-07 
783.388 7.84944e-07 
783.918 7.57554e-07 
784.448 7.35768e-07 
784.979 7.1749e-07 
785.509 7.02059e-07 
786.039 6.8919e-07 
786.569 6.78595e-07 
787.1 6.69929e-07 
787.63 6.62846e-07 
788.16 6.57035e-07 
788.69 6.52236e-07 
789.221 6.48243e-07 
789.751 6.44891e-07 
790.281 6.42056e-07 
790.812 6.39639e-07 
791.342 6.37563e-07 
791.872 6.35767e-07 
792.402 6.34204e-07 
792.933 6.32835e-07 
793.463 6.3163e-07 
793.993 6.30565e-07 
794.523 6.29619e-07 
795.054 6.28775e-07 
795.584 6.28019e-07 
796.114 6.2734e-07 
796.645 6.26729e-07 
797.175 6.26177e-07 
797.705 6.25677e-07 
798.235 6.25223e-07 
798.766 6.2481e-07 
799.296 6.24433e-07 
799.826 6.24089e-07 
800.356 6.23774e-07 
800.887 6.23485e-07 
801.417 6.23219e-07 
801.947 6.22975e-07 
802.478 6.2275e-07 
803.008 6.22542e-07 
803.538 6.22349e-07 
804.068 6.2217e-07 
804.599 6.22003e-07 
805.129 6.21847e-07 
805.659 6.21702e-07 
806.189 6.21565e-07 
806.72 6.21436e-07 
807.25 6.21313e-07 
807.78 6.21196e-07 
808.311 6.21085e-07 
808.841 6.20978e-07 
809.371 6.20874e-07 
809.901 6.20773e-07 
810.432 6.20673e-07 
810.962 6.20576e-07 
811.492 6.20479e-07 
812.022 6.20383e-07 
812.553 6.20286e-07 
813.083 6.20188e-07 
813.613 6.2009e-07 
814.144 6.19989e-07 
814.674 6.19887e-07 
815.204 6.19783e-07 
815.734 6.19676e-07 
816.265 6.19566e-07 
816.795 6.19453e-07 
817.325 6.19338e-07 
817.855 6.19219e-07 
818.386 6.19098e-07 
818.916 6.18973e-07 
819.446 6.18847e-07 
819.977 6.18719e-07 
820.507 6.18591e-07 
821.037 6.18462e-07 
821.567 6.18334e-07 
822.098 6.18208e-07 
822.628 6.18086e-07 
823.158 6.17971e-07 
823.688 6.17864e-07 
824.219 6.1777e-07 
824.749 6.17691e-07 
825.279 6.17632e-07 
825.81 6.17599e-07 
826.34 6.17599e-07 
826.87 6.17639e-07 
827.4 6.17731e-07 
827.931 6.17887e-07 
828.461 6.18124e-07 
828.991 6.18461e-07 
829.521 6.18925e-07 
830.052 6.19546e-07 
830.582 6.20368e-07 
831.112 6.21442e-07 
831.643 6.22837e-07 
832.173 6.24637e-07 
832.703 6.26946e-07 
833.233 6.29886e-07 
833.764 6.33576e-07 
834.294 6.38103e-07 
834.824 6.43427e-07 
835.354 6.49252e-07 
835.885 6.54866e-07 
836.415 6.59146e-07 
836.945 6.60917e-07 
837.476 6.59596e-07 
838.006 6.55588e-07 
838.536 6.50001e-07 
839.066 6.44007e-07 
839.597 6.38406e-07 
840.127 6.3357e-07 
840.657 6.2958e-07 
841.188 6.26369e-07 
841.718 6.23822e-07 
842.248 6.21815e-07 
842.778 6.20244e-07 
843.309 6.19018e-07 
843.839 6.18069e-07 
844.369 6.17342e-07 
844.899 6.16792e-07 
845.43 6.16388e-07 
845.96 6.16102e-07 
846.49 6.15913e-07 
847.021 6.15806e-07 
847.551 6.15767e-07 
848.081 6.15786e-07 
848.611 6.15853e-07 
849.142 6.15963e-07 
849.672 6.16109e-07 
850.202 6.16286e-07 
850.732 6.16491e-07 
851.263 6.1672e-07 
851.793 6.16971e-07 
852.323 6.1724e-07 
852.854 6.17527e-07 
853.384 6.17829e-07 
853.914 6.18145e-07 
854.444 6.18474e-07 
854.975 6.18814e-07 
855.505 6.19165e-07 
856.035 6.19525e-07 
856.565 6.19895e-07 
857.096 6.20273e-07 
857.626 6.20659e-07 
858.156 6.21053e-07 
858.687 6.21453e-07 
859.217 6.2186e-07 
859.747 6.22273e-07 
860.277 6.22691e-07 
860.808 6.23116e-07 
861.338 6.23546e-07 
861.868 6.23981e-07 
862.398 6.2442e-07 
862.929 6.24865e-07 
863.459 6.25314e-07 
863.989 6.25768e-07 
864.52 6.26226e-07 
865.05 6.26688e-07 
865.58 6.27154e-07 
866.11 6.27624e-07 
866.641 6.28098e-07 
867.171 6.28577e-07 
867.701 6.29058e-07 
868.231 6.29543e-07 
868.762 6.30033e-07 
869.292 6.30525e-07 
869.822 6.31022e-07 
870.353 6.31521e-07 
870.883 6.32024e-07 
871.413 6.32531e-07 
871.943 6.33041e-07 
872.474 6.33554e-07 
873.004 6.34071e-07 
873.534 6.34591e-07 
874.064 6.35114e-07 
874.595 6.35641e-07 
875.125 6.36171e-07 
875.655 6.36704e-07 
876.186 6.37241e-07 
876.716 6.37781e-07 
877.246 6.38324e-07 
877.776 6.38871e-07 
878.307 6.3942e-07 
878.837 6.39973e-07 
879.367 6.40529e-07 
879.897 6.41088e-07 
880.428 6.41651e-07 
880.958 6.42217e-07 
881.488 6.42786e-07 
882.019 6.43358e-07 
882.549 6.43933e-07 
883.079 6.44512e-07 
883.609 6.45094e-07 
884.14 6.45679e-07 
884.67 6.46266e-07 
885.2 6.46858e-07 
885.73 6.47452e-07 
886.261 6.4805e-07 
886.791 6.4865e-07 
887.321 6.49254e-07 
887.852 6.4986e-07 
888.382 6.50469e-07 
888.912 6.51082e-07 
889.442 6.51697e-07 
889.973 6.52314e-07 
890.503 6.52935e-07 
891.033 6.53558e-07 
891.563 6.54183e-07 
892.094 6.54811e-07 
892.624 6.55441e-07 
893.154 6.56073e-07 
893.685 6.56706e-07 
894.215 6.57342e-07 
894.745 6.57979e-07 
895.275 6.58618e-07 
895.806 6.59257e-07 
896.336 6.59898e-07 
896.866 6.60538e-07 
897.396 6.61179e-07 
897.927 6.6182e-07 
898.457 6.6246e-07 
898.987 6.631e-07 
899.518 6.63738e-07 
900.048 6.64374e-07 
900.578 6.65008e-07 
901.108 6.65639e-07 
901.639 6.66267e-07 
902.169 6.66891e-07 
902.699 6.6751e-07 
903.229 6.68123e-07 
903.76 6.6873e-07 
904.29 6.6933e-07 
904.82 6.69922e-07 
905.351 6.70505e-07 
905.881 6.71078e-07 
906.411 6.7164e-07 
906.941 6.7219e-07 
907.472 6.72727e-07 
908.002 6.73249e-07 
908.532 6.73754e-07 
909.062 6.74242e-07 
909.593 6.74712e-07 
