#energy geo_1 
400 3.76957e-06 
400.53 3.76897e-06 
401.061 3.76836e-06 
401.591 3.76774e-06 
402.121 3.76712e-06 
402.651 3.76649e-06 
403.182 3.76586e-06 
403.712 3.76521e-06 
404.242 3.76456e-06 
404.772 3.76391e-06 
405.303 3.76324e-06 
405.833 3.76257e-06 
406.363 3.7619e-06 
406.894 3.76121e-06 
407.424 3.76052e-06 
407.954 3.75982e-06 
408.484 3.75912e-06 
409.015 3.75841e-06 
409.545 3.75769e-06 
410.075 3.75696e-06 
410.605 3.75623e-06 
411.136 3.75549e-06 
411.666 3.75474e-06 
412.196 3.75398e-06 
412.727 3.75322e-06 
413.257 3.75245e-06 
413.787 3.75167e-06 
414.317 3.75089e-06 
414.848 3.7501e-06 
415.378 3.7493e-06 
415.908 3.7485e-06 
416.438 3.74768e-06 
416.969 3.74686e-06 
417.499 3.74604e-06 
418.029 3.7452e-06 
418.56 3.74436e-06 
419.09 3.74351e-06 
419.62 3.74265e-06 
420.15 3.74179e-06 
420.681 3.74091e-06 
421.211 3.74003e-06 
421.741 3.73915e-06 
422.271 3.73825e-06 
422.802 3.73734e-06 
423.332 3.73644e-06 
423.862 3.73552e-06 
424.393 3.73459e-06 
424.923 3.73365e-06 
425.453 3.73271e-06 
425.983 3.73176e-06 
426.514 3.7308e-06 
427.044 3.72984e-06 
427.574 3.72886e-06 
428.104 3.72788e-06 
428.635 3.72689e-06 
429.165 3.72589e-06 
429.695 3.72489e-06 
430.226 3.72387e-06 
430.756 3.72285e-06 
431.286 3.72182e-06 
431.816 3.72078e-06 
432.347 3.71973e-06 
432.877 3.71868e-06 
433.407 3.71761e-06 
433.938 3.71654e-06 
434.468 3.71546e-06 
434.998 3.71437e-06 
435.528 3.71327e-06 
436.059 3.71216e-06 
436.589 3.71104e-06 
437.119 3.70992e-06 
437.649 3.70878e-06 
438.18 3.70764e-06 
438.71 3.70648e-06 
439.24 3.70532e-06 
439.771 3.70415e-06 
440.301 3.70297e-06 
440.831 3.70178e-06 
441.361 3.70058e-06 
441.892 3.69937e-06 
442.422 3.69814e-06 
442.952 3.69691e-06 
443.482 3.69567e-06 
444.013 3.69442e-06 
444.543 3.69316e-06 
445.073 3.69189e-06 
445.604 3.6906e-06 
446.134 3.68931e-06 
446.664 3.688e-06 
447.194 3.68669e-06 
447.725 3.68536e-06 
448.255 3.68402e-06 
448.785 3.68267e-06 
449.315 3.68131e-06 
449.846 3.67994e-06 
450.376 3.67855e-06 
450.906 3.67715e-06 
451.437 3.67574e-06 
451.967 3.67432e-06 
452.497 3.67289e-06 
453.027 3.67144e-06 
453.558 3.66998e-06 
454.088 3.66851e-06 
454.618 3.66703e-06 
455.148 3.66553e-06 
455.679 3.66403e-06 
456.209 3.66251e-06 
456.739 3.66098e-06 
457.27 3.65944e-06 
457.8 3.65788e-06 
458.33 3.65632e-06 
458.86 3.65475e-06 
459.391 3.65316e-06 
459.921 3.65158e-06 
460.451 3.64998e-06 
460.981 3.64838e-06 
461.512 3.64678e-06 
462.042 3.64517e-06 
462.572 3.64357e-06 
463.103 3.64197e-06 
463.633 3.64038e-06 
464.163 3.6388e-06 
464.693 3.63724e-06 
465.224 3.63571e-06 
465.754 3.6342e-06 
466.284 3.63274e-06 
466.814 3.63134e-06 
467.345 3.63e-06 
467.875 3.62875e-06 
468.405 3.62761e-06 
468.936 3.62661e-06 
469.466 3.62579e-06 
469.996 3.6252e-06 
470.526 3.62489e-06 
471.057 3.62494e-06 
471.587 3.62546e-06 
472.117 3.62657e-06 
472.647 3.62842e-06 
473.178 3.63121e-06 
473.708 3.63512e-06 
474.238 3.6403e-06 
474.769 3.64673e-06 
475.299 3.65402e-06 
475.829 3.66114e-06 
476.359 3.66632e-06 
476.89 3.6676e-06 
477.42 3.66384e-06 
477.95 3.65555e-06 
478.48 3.6445e-06 
479.011 3.63265e-06 
479.541 3.62133e-06 
480.071 3.61116e-06 
480.602 3.6023e-06 
481.132 3.59466e-06 
481.662 3.58805e-06 
482.192 3.58231e-06 
482.723 3.57725e-06 
483.253 3.57276e-06 
483.783 3.56874e-06 
484.313 3.5651e-06 
484.844 3.5618e-06 
485.374 3.5588e-06 
485.904 3.55608e-06 
486.435 3.55363e-06 
486.965 3.55146e-06 
487.495 3.5496e-06 
488.025 3.54807e-06 
488.556 3.54692e-06 
489.086 3.54623e-06 
489.616 3.54609e-06 
490.146 3.54663e-06 
490.677 3.548e-06 
491.207 3.55043e-06 
491.737 3.55417e-06 
492.268 3.55957e-06 
492.798 3.567e-06 
493.328 3.57685e-06 
493.858 3.58937e-06 
494.389 3.60439e-06 
494.919 3.62083e-06 
495.449 3.63624e-06 
495.979 3.64677e-06 
496.51 3.64855e-06 
497.04 3.63997e-06 
497.57 3.6228e-06 
498.101 3.60098e-06 
498.631 3.57826e-06 
499.161 3.55705e-06 
499.691 3.53837e-06 
500.222 3.52238e-06 
500.752 3.50884e-06 
501.282 3.49737e-06 
501.812 3.48761e-06 
502.343 3.47923e-06 
502.873 3.47199e-06 
503.403 3.46569e-06 
503.934 3.46019e-06 
504.464 3.4554e-06 
504.994 3.45124e-06 
505.524 3.44769e-06 
506.055 3.44474e-06 
506.585 3.44241e-06 
507.115 3.44075e-06 
507.646 3.43983e-06 
508.176 3.43979e-06 
508.706 3.44076e-06 
509.236 3.44297e-06 
509.767 3.44668e-06 
510.297 3.45227e-06 
510.827 3.4602e-06 
511.357 3.47105e-06 
511.888 3.48556e-06 
512.418 3.50452e-06 
512.948 3.5287e-06 
513.479 3.55849e-06 
514.009 3.59319e-06 
514.539 3.63001e-06 
515.069 3.66304e-06 
515.6 3.68393e-06 
516.13 3.68531e-06 
516.66 3.66539e-06 
517.19 3.62927e-06 
517.721 3.58537e-06 
518.251 3.54097e-06 
518.781 3.50036e-06 
519.312 3.46516e-06 
519.842 3.43543e-06 
520.372 3.41054e-06 
520.902 3.38969e-06 
521.433 3.37209e-06 
521.963 3.35708e-06 
522.493 3.34412e-06 
523.023 3.3328e-06 
523.554 3.32279e-06 
524.084 3.31382e-06 
524.614 3.30569e-06 
525.145 3.29825e-06 
525.675 3.29137e-06 
526.205 3.28496e-06 
526.735 3.27893e-06 
527.266 3.27321e-06 
527.796 3.26777e-06 
528.326 3.26255e-06 
528.856 3.25752e-06 
529.387 3.25265e-06 
529.917 3.24792e-06 
530.447 3.24331e-06 
530.978 3.2388e-06 
531.508 3.23437e-06 
532.038 3.23002e-06 
532.568 3.22574e-06 
533.099 3.2215e-06 
533.629 3.21731e-06 
534.159 3.21317e-06 
534.689 3.20906e-06 
535.22 3.20497e-06 
535.75 3.20091e-06 
536.28 3.19688e-06 
536.811 3.19286e-06 
537.341 3.18885e-06 
537.871 3.18486e-06 
538.401 3.18088e-06 
538.932 3.17691e-06 
539.462 3.17294e-06 
539.992 3.16898e-06 
540.522 3.16502e-06 
541.053 3.16106e-06 
541.583 3.15711e-06 
542.113 3.15316e-06 
542.644 3.14922e-06 
543.174 3.14527e-06 
543.704 3.14134e-06 
544.234 3.13741e-06 
544.765 3.13348e-06 
545.295 3.12957e-06 
545.825 3.12567e-06 
546.355 3.12179e-06 
546.886 3.11794e-06 
547.416 3.11412e-06 
547.946 3.11035e-06 
548.477 3.10663e-06 
549.007 3.10299e-06 
549.537 3.09945e-06 
550.067 3.09604e-06 
550.598 3.09278e-06 
551.128 3.0897e-06 
551.658 3.0868e-06 
552.188 3.08404e-06 
552.719 3.0813e-06 
553.249 3.07833e-06 
553.779 3.07486e-06 
554.31 3.07068e-06 
554.84 3.06582e-06 
555.37 3.06051e-06 
555.9 3.05502e-06 
556.431 3.04958e-06 
556.961 3.04429e-06 
557.491 3.0392e-06 
558.021 3.03428e-06 
558.552 3.02953e-06 
559.082 3.0249e-06 
559.612 3.02039e-06 
560.143 3.01597e-06 
560.673 3.01162e-06 
561.203 3.00735e-06 
561.733 3.00315e-06 
562.264 2.99902e-06 
562.794 2.99498e-06 
563.324 2.99102e-06 
563.854 2.98716e-06 
564.385 2.98341e-06 
564.915 2.97975e-06 
565.445 2.97615e-06 
565.976 2.97249e-06 
566.506 2.96864e-06 
567.036 2.96444e-06 
567.566 2.95984e-06 
568.097 2.95491e-06 
568.627 2.9498e-06 
569.157 2.94465e-06 
569.688 2.93955e-06 
570.218 2.93453e-06 
570.748 2.9296e-06 
571.278 2.92475e-06 
571.809 2.91996e-06 
572.339 2.91522e-06 
572.869 2.91051e-06 
573.399 2.90583e-06 
573.93 2.90115e-06 
574.46 2.89648e-06 
574.99 2.89182e-06 
575.521 2.88715e-06 
576.051 2.88247e-06 
576.581 2.87779e-06 
577.111 2.87309e-06 
577.642 2.86838e-06 
578.172 2.86367e-06 
578.702 2.85893e-06 
579.232 2.85419e-06 
579.763 2.84944e-06 
580.293 2.84467e-06 
580.823 2.8399e-06 
581.354 2.83511e-06 
581.884 2.83033e-06 
582.414 2.82554e-06 
582.944 2.82076e-06 
583.475 2.81599e-06 
584.005 2.81124e-06 
584.535 2.80651e-06 
585.065 2.80182e-06 
585.596 2.79719e-06 
586.126 2.79262e-06 
586.656 2.78815e-06 
587.187 2.78381e-06 
587.717 2.77963e-06 
588.247 2.77566e-06 
588.777 2.77196e-06 
589.308 2.76861e-06 
589.838 2.76571e-06 
590.368 2.76337e-06 
590.898 2.76168e-06 
591.429 2.76072e-06 
591.959 2.7604e-06 
592.489 2.76041e-06 
593.02 2.76004e-06 
593.55 2.75823e-06 
594.08 2.75403e-06 
594.61 2.74713e-06 
595.141 2.73811e-06 
595.671 2.72802e-06 
596.201 2.71783e-06 
596.731 2.70813e-06 
597.262 2.69915e-06 
597.792 2.69092e-06 
598.322 2.68339e-06 
598.853 2.67645e-06 
599.383 2.67002e-06 
599.913 2.66404e-06 
600.443 2.65845e-06 
600.974 2.65323e-06 
601.504 2.64839e-06 
602.034 2.64395e-06 
602.564 2.63995e-06 
603.095 2.63645e-06 
603.625 2.63352e-06 
604.155 2.63125e-06 
604.686 2.62965e-06 
605.216 2.62863e-06 
605.746 2.62784e-06 
606.276 2.62662e-06 
606.807 2.62406e-06 
607.337 2.61941e-06 
607.867 2.61251e-06 
608.397 2.60388e-06 
608.928 2.5944e-06 
609.458 2.58486e-06 
609.988 2.57573e-06 
610.519 2.56722e-06 
611.049 2.55933e-06 
611.579 2.552e-06 
612.109 2.54514e-06 
612.64 2.53866e-06 
613.17 2.53249e-06 
613.7 2.52657e-06 
614.23 2.52086e-06 
614.761 2.51531e-06 
615.291 2.50992e-06 
615.821 2.50466e-06 
616.352 2.49954e-06 
616.882 2.49455e-06 
617.412 2.48971e-06 
617.942 2.485e-06 
618.473 2.48041e-06 
619.003 2.47587e-06 
619.533 2.47126e-06 
620.063 2.4664e-06 
620.594 2.46112e-06 
621.124 2.45537e-06 
621.654 2.44925e-06 
622.185 2.44292e-06 
622.715 2.43655e-06 
623.245 2.43022e-06 
623.775 2.42397e-06 
624.306 2.41779e-06 
624.836 2.41169e-06 
625.366 2.40562e-06 
625.896 2.39958e-06 
626.427 2.39355e-06 
626.957 2.38752e-06 
627.487 2.38148e-06 
628.018 2.37541e-06 
628.548 2.36932e-06 
629.078 2.3632e-06 
629.608 2.35705e-06 
630.139 2.35087e-06 
630.669 2.34465e-06 
631.199 2.33841e-06 
631.729 2.33214e-06 
632.26 2.32586e-06 
632.79 2.31956e-06 
633.32 2.31327e-06 
633.851 2.307e-06 
634.381 2.30076e-06 
634.911 2.29459e-06 
635.441 2.28852e-06 
635.972 2.28261e-06 
636.502 2.27695e-06 
637.032 2.27164e-06 
637.562 2.26689e-06 
638.093 2.26299e-06 
638.623 2.2605e-06 
639.153 2.26047e-06 
639.684 2.26508e-06 
640.214 2.27947e-06 
640.744 2.31735e-06 
641.274 2.41451e-06 
641.805 2.56513e-06 
642.335 2.5106e-06 
642.865 2.36865e-06 
643.396 2.28449e-06 
643.926 2.24733e-06 
644.456 2.23005e-06 
644.986 2.22194e-06 
645.517 2.21878e-06 
646.047 2.21831e-06 
646.577 2.21864e-06 
647.107 2.2178e-06 
647.638 2.21401e-06 
648.168 2.20644e-06 
648.698 2.19548e-06 
649.229 2.18241e-06 
649.759 2.16866e-06 
650.289 2.15534e-06 
650.819 2.14306e-06 
651.35 2.13202e-06 
651.88 2.12219e-06 
652.41 2.11343e-06 
652.94 2.10558e-06 
653.471 2.09852e-06 
654.001 2.09213e-06 
654.531 2.08634e-06 
655.062 2.08111e-06 
655.592 2.07644e-06 
656.122 2.07235e-06 
656.652 2.06889e-06 
657.183 2.06612e-06 
657.713 2.06409e-06 
658.243 2.06282e-06 
658.773 2.06216e-06 
659.304 2.06171e-06 
659.834 2.06074e-06 
660.364 2.05836e-06 
660.895 2.05389e-06 
661.425 2.04721e-06 
661.955 2.03882e-06 
662.485 2.02953e-06 
663.016 2.0201e-06 
663.546 2.01103e-06 
664.076 2.00257e-06 
664.606 1.99475e-06 
665.137 1.98753e-06 
665.667 1.98082e-06 
666.197 1.97452e-06 
666.728 1.96855e-06 
667.258 1.96283e-06 
667.788 1.95733e-06 
668.318 1.95199e-06 
668.849 1.94677e-06 
669.379 1.94166e-06 
669.909 1.93663e-06 
670.439 1.93166e-06 
670.97 1.92674e-06 
671.5 1.92185e-06 
672.03 1.91699e-06 
672.561 1.91216e-06 
673.091 1.90734e-06 
673.621 1.90253e-06 
674.151 1.89772e-06 
674.682 1.89291e-06 
675.212 1.8881e-06 
675.742 1.88328e-06 
676.272 1.87845e-06 
676.803 1.87361e-06 
677.333 1.86876e-06 
677.863 1.86389e-06 
678.394 1.85901e-06 
678.924 1.85411e-06 
679.454 1.84918e-06 
679.984 1.84424e-06 
680.515 1.83927e-06 
681.045 1.83428e-06 
681.575 1.82927e-06 
682.105 1.82423e-06 
682.636 1.81917e-06 
683.166 1.81408e-06 
683.696 1.80897e-06 
684.227 1.80384e-06 
684.757 1.79868e-06 
685.287 1.7935e-06 
685.817 1.78831e-06 
686.348 1.7831e-06 
686.878 1.77787e-06 
687.408 1.77263e-06 
687.938 1.76739e-06 
688.469 1.76215e-06 
688.999 1.75692e-06 
689.529 1.75171e-06 
690.06 1.74653e-06 
690.59 1.74139e-06 
691.12 1.73631e-06 
691.65 1.7313e-06 
692.181 1.72641e-06 
692.711 1.72166e-06 
693.241 1.71708e-06 
693.771 1.71275e-06 
694.302 1.70871e-06 
694.832 1.70505e-06 
695.362 1.7019e-06 
695.893 1.69937e-06 
696.423 1.69765e-06 
696.953 1.69696e-06 
697.483 1.69751e-06 
698.014 1.69955e-06 
698.544 1.70321e-06 
699.074 1.70833e-06 
699.604 1.71423e-06 
700.135 1.71942e-06 
700.665 1.72178e-06 
701.195 1.71933e-06 
701.726 1.71126e-06 
702.256 1.69835e-06 
702.786 1.68245e-06 
703.316 1.66557e-06 
703.847 1.64923e-06 
704.377 1.63424e-06 
704.907 1.62088e-06 
705.438 1.6091e-06 
705.968 1.59872e-06 
706.498 1.58953e-06 
707.028 1.58137e-06 
707.559 1.57408e-06 
708.089 1.56756e-06 
708.619 1.56177e-06 
709.149 1.5567e-06 
709.68 1.55238e-06 
710.21 1.54885e-06 
710.74 1.5462e-06 
711.271 1.54449e-06 
711.801 1.54371e-06 
712.331 1.54364e-06 
712.861 1.54373e-06 
713.392 1.54306e-06 
713.922 1.54052e-06 
714.452 1.53533e-06 
714.982 1.52749e-06 
715.513 1.51769e-06 
716.043 1.50694e-06 
716.573 1.49614e-06 
717.104 1.48586e-06 
717.634 1.47636e-06 
718.164 1.46768e-06 
718.694 1.45973e-06 
719.225 1.45242e-06 
719.755 1.44563e-06 
720.285 1.43928e-06 
720.815 1.43328e-06 
721.346 1.42758e-06 
721.876 1.42213e-06 
722.406 1.41692e-06 
722.937 1.41192e-06 
723.467 1.40714e-06 
723.997 1.40257e-06 
724.527 1.39825e-06 
725.058 1.39419e-06 
725.588 1.39045e-06 
726.118 1.38708e-06 
726.648 1.38413e-06 
727.179 1.38167e-06 
727.709 1.37967e-06 
728.239 1.37803e-06 
728.77 1.3764e-06 
729.3 1.37421e-06 
729.83 1.37079e-06 
730.36 1.36573e-06 
730.891 1.35913e-06 
731.421 1.35155e-06 
731.951 1.34362e-06 
732.481 1.33584e-06 
733.012 1.32845e-06 
733.542 1.32151e-06 
734.072 1.315e-06 
734.603 1.30886e-06 
735.133 1.30301e-06 
735.663 1.2974e-06 
736.193 1.29196e-06 
736.724 1.28667e-06 
737.254 1.28149e-06 
737.784 1.27639e-06 
738.314 1.27134e-06 
738.845 1.26634e-06 
739.375 1.26136e-06 
739.905 1.25639e-06 
740.436 1.25143e-06 
740.966 1.24647e-06 
741.496 1.24149e-06 
742.026 1.23649e-06 
742.557 1.23147e-06 
743.087 1.22641e-06 
743.617 1.22131e-06 
744.147 1.21617e-06 
744.678 1.21098e-06 
745.208 1.20573e-06 
745.738 1.20042e-06 
746.269 1.19505e-06 
746.799 1.1896e-06 
747.329 1.18408e-06 
747.859 1.17848e-06 
748.39 1.1728e-06 
748.92 1.16702e-06 
749.45 1.16115e-06 
749.98 1.15518e-06 
750.511 1.14911e-06 
751.041 1.14293e-06 
751.571 1.13663e-06 
752.102 1.13023e-06 
752.632 1.12371e-06 
753.162 1.11707e-06 
753.692 1.11031e-06 
754.223 1.10343e-06 
754.753 1.09643e-06 
755.283 1.08931e-06 
755.813 1.08208e-06 
756.344 1.07475e-06 
756.874 1.06731e-06 
757.404 1.0598e-06 
757.935 1.05222e-06 
758.465 1.0446e-06 
758.995 1.03698e-06 
759.525 1.02942e-06 
760.056 1.02199e-06 
760.586 1.01479e-06 
761.116 1.00798e-06 
761.646 1.00183e-06 
762.177 9.96734e-07 
762.707 9.93348e-07 
763.237 9.9287e-07 
763.768 9.97572e-07 
764.298 1.01219e-06 
764.828 1.0478e-06 
765.358 1.13365e-06 
765.889 1.34723e-06 
766.419 1.70853e-06 
766.949 1.67828e-06 
767.479 1.3421e-06 
768.01 1.10175e-06 
768.54 9.91996e-07 
769.07 9.36652e-07 
769.601 9.03903e-07 
770.131 8.81785e-07 
770.661 8.6528e-07 
771.191 8.52052e-07 
771.722 8.40927e-07 
772.252 8.31291e-07 
772.782 8.22856e-07 
773.312 8.15536e-07 
773.843 8.094e-07 
774.373 8.04685e-07 
774.903 8.01859e-07 
775.434 8.01739e-07 
775.964 8.05756e-07 
776.494 8.16533e-07 
777.024 8.39234e-07 
777.555 8.84993e-07 
778.085 9.80791e-07 
778.615 1.19978e-06 
779.146 1.71413e-06 
779.676 2.2903e-06 
780.206 1.99942e-06 
780.736 1.38678e-06 
781.267 1.04699e-06 
781.797 8.99211e-07 
782.327 8.2805e-07 
782.857 7.89234e-07 
783.388 7.65169e-07 
783.918 7.48088e-07 
784.448 7.34552e-07 
784.979 7.2324e-07 
785.509 7.1372e-07 
786.039 7.05801e-07 
786.569 6.99298e-07 
787.1 6.93993e-07 
787.63 6.89669e-07 
788.16 6.86134e-07 
788.69 6.83227e-07 
789.221 6.80819e-07 
789.751 6.78811e-07 
790.281 6.77124e-07 
790.812 6.75697e-07 
791.342 6.74483e-07 
791.872 6.73443e-07 
792.402 6.7255e-07 
792.933 6.71778e-07 
793.463 6.71109e-07 
793.993 6.70528e-07 
794.523 6.70021e-07 
795.054 6.6958e-07 
795.584 6.69194e-07 
796.114 6.68857e-07 
796.645 6.68563e-07 
797.175 6.68307e-07 
797.705 6.68084e-07 
798.235 6.67891e-07 
798.766 6.67724e-07 
799.296 6.67581e-07 
799.826 6.67458e-07 
800.356 6.67355e-07 
800.887 6.67269e-07 
801.417 6.67198e-07 
801.947 6.67141e-07 
802.478 6.67096e-07 
803.008 6.67063e-07 
803.538 6.6704e-07 
804.068 6.67027e-07 
804.599 6.67021e-07 
805.129 6.67024e-07 
805.659 6.67033e-07 
806.189 6.67047e-07 
806.72 6.67068e-07 
807.25 6.67093e-07 
807.78 6.67122e-07 
808.311 6.67154e-07 
808.841 6.6719e-07 
809.371 6.67228e-07 
809.901 6.67268e-07 
810.432 6.6731e-07 
810.962 6.67353e-07 
811.492 6.67397e-07 
812.022 6.67441e-07 
812.553 6.67485e-07 
813.083 6.67529e-07 
813.613 6.67572e-07 
814.144 6.67615e-07 
814.674 6.67655e-07 
815.204 6.67695e-07 
815.734 6.67733e-07 
816.265 6.6777e-07 
816.795 6.67804e-07 
817.325 6.67837e-07 
817.855 6.67867e-07 
818.386 6.67896e-07 
818.916 6.67924e-07 
819.446 6.6795e-07 
819.977 6.67975e-07 
820.507 6.67999e-07 
821.037 6.68023e-07 
821.567 6.68048e-07 
822.098 6.68074e-07 
822.628 6.68104e-07 
823.158 6.68137e-07 
823.688 6.68177e-07 
824.219 6.68225e-07 
824.749 6.68284e-07 
825.279 6.68356e-07 
825.81 6.68446e-07 
826.34 6.68559e-07 
826.87 6.687e-07 
827.4 6.68876e-07 
827.931 6.69096e-07 
828.461 6.6937e-07 
828.991 6.69714e-07 
829.521 6.70144e-07 
830.052 6.70682e-07 
830.582 6.71357e-07 
831.112 6.72205e-07 
831.643 6.73272e-07 
832.173 6.74616e-07 
832.703 6.76308e-07 
833.233 6.78429e-07 
833.764 6.81066e-07 
834.294 6.84272e-07 
834.824 6.88025e-07 
835.354 6.92121e-07 
835.885 6.96076e-07 
836.415 6.99125e-07 
836.945 7.00468e-07 
837.476 6.99708e-07 
838.006 6.97121e-07 
838.536 6.93461e-07 
839.066 6.89526e-07 
839.597 6.85862e-07 
840.127 6.82722e-07 
840.657 6.8016e-07 
841.188 6.7813e-07 
841.718 6.76554e-07 
842.248 6.75348e-07 
842.778 6.7444e-07 
843.309 6.73768e-07 
843.839 6.73286e-07 
844.369 6.72956e-07 
844.899 6.72748e-07 
845.43 6.72639e-07 
845.96 6.72612e-07 
846.49 6.72652e-07 
847.021 6.72749e-07 
847.551 6.72892e-07 
848.081 6.73075e-07 
848.611 6.73292e-07 
849.142 6.73538e-07 
849.672 6.7381e-07 
850.202 6.74104e-07 
850.732 6.74417e-07 
851.263 6.74747e-07 
851.793 6.75092e-07 
852.323 6.75451e-07 
852.854 6.75822e-07 
853.384 6.76204e-07 
853.914 6.76596e-07 
854.444 6.76998e-07 
854.975 6.77407e-07 
855.505 6.77824e-07 
856.035 6.78249e-07 
856.565 6.7868e-07 
857.096 6.79117e-07 
857.626 6.79561e-07 
858.156 6.80009e-07 
858.687 6.80463e-07 
859.217 6.80922e-07 
859.747 6.81385e-07 
860.277 6.81853e-07 
860.808 6.82326e-07 
861.338 6.82802e-07 
861.868 6.83283e-07 
862.398 6.83767e-07 
862.929 6.84255e-07 
863.459 6.84747e-07 
863.989 6.85242e-07 
864.52 6.85741e-07 
865.05 6.86243e-07 
865.58 6.86748e-07 
866.11 6.87256e-07 
866.641 6.87768e-07 
867.171 6.88283e-07 
867.701 6.88801e-07 
868.231 6.89322e-07 
868.762 6.89846e-07 
869.292 6.90372e-07 
869.822 6.90902e-07 
870.353 6.91435e-07 
870.883 6.9197e-07 
871.413 6.92509e-07 
871.943 6.9305e-07 
872.474 6.93594e-07 
873.004 6.94141e-07 
873.534 6.94692e-07 
874.064 6.95244e-07 
874.595 6.95799e-07 
875.125 6.96357e-07 
875.655 6.96919e-07 
876.186 6.97482e-07 
876.716 6.98049e-07 
877.246 6.98618e-07 
877.776 6.9919e-07 
878.307 6.99765e-07 
878.837 7.00343e-07 
879.367 7.00924e-07 
879.897 7.01507e-07 
880.428 7.02093e-07 
880.958 7.02682e-07 
881.488 7.03274e-07 
882.019 7.03868e-07 
882.549 7.04465e-07 
883.079 7.05065e-07 
883.609 7.05668e-07 
884.14 7.06273e-07 
884.67 7.06882e-07 
885.2 7.07493e-07 
885.73 7.08106e-07 
886.261 7.08723e-07 
886.791 7.09342e-07 
887.321 7.09963e-07 
887.852 7.10587e-07 
888.382 7.11213e-07 
888.912 7.11843e-07 
889.442 7.12474e-07 
889.973 7.13107e-07 
890.503 7.13743e-07 
891.033 7.14381e-07 
891.563 7.15021e-07 
892.094 7.15663e-07 
892.624 7.16306e-07 
893.154 7.16951e-07 
893.685 7.17597e-07 
894.215 7.18244e-07 
894.745 7.18893e-07 
895.275 7.19542e-07 
895.806 7.20192e-07 
896.336 7.20842e-07 
896.866 7.21491e-07 
897.396 7.22141e-07 
897.927 7.22789e-07 
898.457 7.23436e-07 
898.987 7.24082e-07 
899.518 7.24725e-07 
900.048 7.25366e-07 
900.578 7.26003e-07 
901.108 7.26637e-07 
901.639 7.27266e-07 
902.169 7.2789e-07 
902.699 7.28508e-07 
903.229 7.29119e-07 
903.76 7.29723e-07 
904.29 7.30319e-07 
904.82 7.30904e-07 
905.351 7.31479e-07 
905.881 7.32043e-07 
906.411 7.32594e-07 
906.941 7.3313e-07 
907.472 7.33651e-07 
908.002 7.34155e-07 
908.532 7.34641e-07 
909.062 7.35106e-07 
