#energy geo_1 
400 2.9576e-06 
400.53 2.9578e-06 
401.061 2.958e-06 
401.591 2.9582e-06 
402.121 2.95839e-06 
402.651 2.95858e-06 
403.182 2.95876e-06 
403.712 2.95895e-06 
404.242 2.95912e-06 
404.772 2.9593e-06 
405.303 2.95947e-06 
405.833 2.95964e-06 
406.363 2.9598e-06 
406.894 2.95996e-06 
407.424 2.96012e-06 
407.954 2.96027e-06 
408.484 2.96042e-06 
409.015 2.96057e-06 
409.545 2.96071e-06 
410.075 2.96085e-06 
410.605 2.96098e-06 
411.136 2.96111e-06 
411.666 2.96124e-06 
412.196 2.96136e-06 
412.727 2.96148e-06 
413.257 2.9616e-06 
413.787 2.96171e-06 
414.317 2.96182e-06 
414.848 2.96192e-06 
415.378 2.96202e-06 
415.908 2.96212e-06 
416.438 2.96221e-06 
416.969 2.9623e-06 
417.499 2.96238e-06 
418.029 2.96246e-06 
418.56 2.96254e-06 
419.09 2.96261e-06 
419.62 2.96268e-06 
420.15 2.96275e-06 
420.681 2.96281e-06 
421.211 2.96286e-06 
421.741 2.96291e-06 
422.271 2.96296e-06 
422.802 2.96301e-06 
423.332 2.96305e-06 
423.862 2.96308e-06 
424.393 2.96311e-06 
424.923 2.96314e-06 
425.453 2.96316e-06 
425.983 2.96318e-06 
426.514 2.96319e-06 
427.044 2.9632e-06 
427.574 2.96321e-06 
428.104 2.96321e-06 
428.635 2.9632e-06 
429.165 2.96319e-06 
429.695 2.96318e-06 
430.226 2.96316e-06 
430.756 2.96314e-06 
431.286 2.96311e-06 
431.816 2.96308e-06 
432.347 2.96304e-06 
432.877 2.963e-06 
433.407 2.96296e-06 
433.938 2.96291e-06 
434.468 2.96285e-06 
434.998 2.96279e-06 
435.528 2.96272e-06 
436.059 2.96265e-06 
436.589 2.96257e-06 
437.119 2.96249e-06 
437.649 2.9624e-06 
438.18 2.96231e-06 
438.71 2.96221e-06 
439.24 2.9621e-06 
439.771 2.96199e-06 
440.301 2.96187e-06 
440.831 2.96175e-06 
441.361 2.96162e-06 
441.892 2.96149e-06 
442.422 2.96134e-06 
442.952 2.9612e-06 
443.482 2.96104e-06 
444.013 2.96088e-06 
444.543 2.96071e-06 
445.073 2.96053e-06 
445.604 2.96035e-06 
446.134 2.96015e-06 
446.664 2.95996e-06 
447.194 2.95975e-06 
447.725 2.95953e-06 
448.255 2.95931e-06 
448.785 2.95908e-06 
449.315 2.95884e-06 
449.846 2.95859e-06 
450.376 2.95833e-06 
450.906 2.95807e-06 
451.437 2.95779e-06 
451.967 2.95751e-06 
452.497 2.95721e-06 
453.027 2.95691e-06 
453.558 2.9566e-06 
454.088 2.95628e-06 
454.618 2.95594e-06 
455.148 2.9556e-06 
455.679 2.95525e-06 
456.209 2.9549e-06 
456.739 2.95453e-06 
457.27 2.95415e-06 
457.8 2.95377e-06 
458.33 2.95338e-06 
458.86 2.95298e-06 
459.391 2.95258e-06 
459.921 2.95217e-06 
460.451 2.95176e-06 
460.981 2.95134e-06 
461.512 2.95093e-06 
462.042 2.95051e-06 
462.572 2.95011e-06 
463.103 2.94971e-06 
463.633 2.94932e-06 
464.163 2.94895e-06 
464.693 2.94861e-06 
465.224 2.94829e-06 
465.754 2.94801e-06 
466.284 2.94778e-06 
466.814 2.94761e-06 
467.345 2.94752e-06 
467.875 2.94753e-06 
468.405 2.94766e-06 
468.936 2.94795e-06 
469.466 2.94843e-06 
469.996 2.94916e-06 
470.526 2.9502e-06 
471.057 2.95164e-06 
471.587 2.95359e-06 
472.117 2.95617e-06 
472.647 2.95957e-06 
473.178 2.96398e-06 
473.708 2.96961e-06 
474.238 2.97662e-06 
474.769 2.98499e-06 
475.299 2.99429e-06 
475.829 3.00341e-06 
476.359 3.01046e-06 
476.89 3.01328e-06 
477.42 3.01066e-06 
477.95 3.00315e-06 
478.48 2.99267e-06 
479.011 2.98132e-06 
479.541 2.97055e-06 
480.071 2.96104e-06 
480.602 2.95294e-06 
481.132 2.94617e-06 
481.662 2.94052e-06 
482.192 2.93581e-06 
482.723 2.93184e-06 
483.253 2.92849e-06 
483.783 2.92565e-06 
484.313 2.92322e-06 
484.844 2.92116e-06 
485.374 2.91943e-06 
485.904 2.918e-06 
486.435 2.91687e-06 
486.965 2.91605e-06 
487.495 2.91555e-06 
488.025 2.91542e-06 
488.556 2.9157e-06 
489.086 2.91648e-06 
489.616 2.91786e-06 
490.146 2.91996e-06 
490.677 2.92298e-06 
491.207 2.92713e-06 
491.737 2.93271e-06 
492.268 2.94008e-06 
492.798 2.94966e-06 
493.328 2.96185e-06 
493.858 2.97693e-06 
494.389 2.99472e-06 
494.919 3.01406e-06 
495.449 3.03229e-06 
495.979 3.04526e-06 
496.51 3.04879e-06 
497.04 3.04112e-06 
497.57 3.0242e-06 
498.101 3.00226e-06 
498.631 2.97936e-06 
499.161 2.95809e-06 
499.691 2.93957e-06 
500.222 2.92396e-06 
500.752 2.911e-06 
501.282 2.90027e-06 
501.812 2.8914e-06 
502.343 2.88402e-06 
502.873 2.87787e-06 
503.403 2.87273e-06 
503.934 2.86847e-06 
504.464 2.86496e-06 
504.994 2.86214e-06 
505.524 2.85997e-06 
506.055 2.85844e-06 
506.585 2.85759e-06 
507.115 2.85746e-06 
507.646 2.85813e-06 
508.176 2.85973e-06 
508.706 2.86243e-06 
509.236 2.86645e-06 
509.767 2.87209e-06 
510.297 2.87974e-06 
510.827 2.8899e-06 
511.357 2.90321e-06 
511.888 2.92043e-06 
512.418 2.94244e-06 
512.948 2.97005e-06 
513.479 3.00368e-06 
514.009 3.0426e-06 
514.539 3.08379e-06 
515.069 3.12096e-06 
515.6 3.14516e-06 
516.13 3.1485e-06 
516.66 3.12907e-06 
517.19 3.09233e-06 
517.721 3.04728e-06 
518.251 3.00173e-06 
518.781 2.96025e-06 
519.312 2.92459e-06 
519.842 2.89479e-06 
520.372 2.8702e-06 
520.902 2.84994e-06 
521.433 2.83317e-06 
521.963 2.81919e-06 
522.493 2.80742e-06 
523.023 2.79741e-06 
523.554 2.7888e-06 
524.084 2.78131e-06 
524.614 2.77474e-06 
525.145 2.76891e-06 
525.675 2.76368e-06 
526.205 2.75896e-06 
526.735 2.75465e-06 
527.266 2.75068e-06 
527.796 2.74701e-06 
528.326 2.74358e-06 
528.856 2.74036e-06 
529.387 2.73732e-06 
529.917 2.73443e-06 
530.447 2.73167e-06 
530.978 2.72902e-06 
531.508 2.72646e-06 
532.038 2.72399e-06 
532.568 2.72159e-06 
533.099 2.71925e-06 
533.629 2.71696e-06 
534.159 2.71472e-06 
534.689 2.71252e-06 
535.22 2.71035e-06 
535.75 2.70821e-06 
536.28 2.7061e-06 
536.811 2.70401e-06 
537.341 2.70194e-06 
537.871 2.69988e-06 
538.401 2.69784e-06 
538.932 2.6958e-06 
539.462 2.69378e-06 
539.992 2.69177e-06 
540.522 2.68976e-06 
541.053 2.68776e-06 
541.583 2.68577e-06 
542.113 2.68379e-06 
542.644 2.68181e-06 
543.174 2.67984e-06 
543.704 2.67789e-06 
544.234 2.67595e-06 
544.765 2.67402e-06 
545.295 2.67212e-06 
545.825 2.67024e-06 
546.355 2.6684e-06 
546.886 2.6666e-06 
547.416 2.66486e-06 
547.946 2.66319e-06 
548.477 2.66162e-06 
549.007 2.66018e-06 
549.537 2.65889e-06 
550.067 2.6578e-06 
550.598 2.65695e-06 
551.128 2.65638e-06 
551.658 2.6561e-06 
552.188 2.65604e-06 
552.719 2.656e-06 
553.249 2.65563e-06 
553.779 2.65447e-06 
554.31 2.65223e-06 
554.84 2.64894e-06 
555.37 2.64495e-06 
555.9 2.6407e-06 
556.431 2.63652e-06 
556.961 2.63259e-06 
557.491 2.62896e-06 
558.021 2.62562e-06 
558.552 2.62252e-06 
559.082 2.61964e-06 
559.612 2.61694e-06 
560.143 2.61439e-06 
560.673 2.61197e-06 
561.203 2.60968e-06 
561.733 2.60752e-06 
562.264 2.60549e-06 
562.794 2.60361e-06 
563.324 2.60189e-06 
563.854 2.60036e-06 
564.385 2.59903e-06 
564.915 2.59789e-06 
565.445 2.59684e-06 
565.976 2.5957e-06 
566.506 2.59421e-06 
567.036 2.59209e-06 
567.566 2.58924e-06 
568.097 2.5858e-06 
568.627 2.58203e-06 
569.157 2.5782e-06 
569.688 2.57447e-06 
570.218 2.5709e-06 
570.748 2.56751e-06 
571.278 2.56427e-06 
571.809 2.56115e-06 
572.339 2.55813e-06 
572.869 2.55518e-06 
573.399 2.55228e-06 
573.93 2.54942e-06 
574.46 2.54658e-06 
574.99 2.54376e-06 
575.521 2.54094e-06 
576.051 2.53813e-06 
576.581 2.53531e-06 
577.111 2.53249e-06 
577.642 2.52965e-06 
578.172 2.52681e-06 
578.702 2.52396e-06 
579.232 2.5211e-06 
579.763 2.51823e-06 
580.293 2.51536e-06 
580.823 2.51248e-06 
581.354 2.5096e-06 
581.884 2.50672e-06 
582.414 2.50385e-06 
582.944 2.50101e-06 
583.475 2.49819e-06 
584.005 2.4954e-06 
584.535 2.49268e-06 
585.065 2.49003e-06 
585.596 2.48747e-06 
586.126 2.48504e-06 
586.656 2.48278e-06 
587.187 2.48073e-06 
587.717 2.47896e-06 
588.247 2.47755e-06 
588.777 2.4766e-06 
589.308 2.47623e-06 
589.838 2.47661e-06 
590.368 2.4779e-06 
590.898 2.48029e-06 
591.429 2.48387e-06 
591.959 2.48852e-06 
592.489 2.49371e-06 
593.02 2.49825e-06 
593.55 2.50043e-06 
594.08 2.49864e-06 
594.61 2.49238e-06 
595.141 2.4826e-06 
595.671 2.47106e-06 
596.201 2.45934e-06 
596.731 2.4484e-06 
597.262 2.43866e-06 
597.792 2.43015e-06 
598.322 2.42278e-06 
598.853 2.41637e-06 
599.383 2.41079e-06 
599.913 2.40592e-06 
600.443 2.40168e-06 
600.974 2.39802e-06 
601.504 2.39495e-06 
602.034 2.39247e-06 
602.564 2.39064e-06 
603.095 2.38955e-06 
603.625 2.38931e-06 
604.155 2.39001e-06 
604.686 2.39169e-06 
605.216 2.39419e-06 
605.746 2.39703e-06 
606.276 2.39924e-06 
606.807 2.39953e-06 
607.337 2.39682e-06 
607.867 2.39087e-06 
608.397 2.38245e-06 
608.928 2.37281e-06 
609.458 2.36308e-06 
609.988 2.35395e-06 
610.519 2.34569e-06 
611.049 2.33832e-06 
611.579 2.33176e-06 
612.109 2.32587e-06 
612.64 2.32053e-06 
613.17 2.31564e-06 
613.7 2.3111e-06 
614.23 2.30687e-06 
614.761 2.30289e-06 
615.291 2.29915e-06 
615.821 2.29563e-06 
616.352 2.29233e-06 
616.882 2.28925e-06 
617.412 2.28642e-06 
617.942 2.28383e-06 
618.473 2.28145e-06 
619.003 2.27916e-06 
619.533 2.27673e-06 
620.063 2.27381e-06 
620.594 2.27012e-06 
621.124 2.26555e-06 
621.654 2.26028e-06 
622.185 2.25464e-06 
622.715 2.24891e-06 
623.245 2.24326e-06 
623.775 2.23777e-06 
624.306 2.23244e-06 
624.836 2.22723e-06 
625.366 2.22211e-06 
625.896 2.21706e-06 
626.427 2.21204e-06 
626.957 2.20703e-06 
627.487 2.20201e-06 
628.018 2.19696e-06 
628.548 2.19188e-06 
629.078 2.18677e-06 
629.608 2.18162e-06 
630.139 2.17642e-06 
630.669 2.17119e-06 
631.199 2.16592e-06 
631.729 2.16063e-06 
632.26 2.15532e-06 
632.79 2.15002e-06 
633.32 2.14475e-06 
633.851 2.13954e-06 
634.381 2.13443e-06 
634.911 2.12947e-06 
635.441 2.12474e-06 
635.972 2.12035e-06 
636.502 2.11647e-06 
637.032 2.11333e-06 
637.562 2.11131e-06 
638.093 2.11104e-06 
638.623 2.11366e-06 
639.153 2.12129e-06 
639.684 2.13842e-06 
640.214 2.17566e-06 
640.744 2.26124e-06 
641.274 2.46893e-06 
641.805 2.78665e-06 
642.335 2.68059e-06 
642.865 2.39363e-06 
643.396 2.22543e-06 
643.926 2.15369e-06 
644.456 2.12238e-06 
644.986 2.10936e-06 
645.517 2.10593e-06 
646.047 2.10771e-06 
646.577 2.11135e-06 
647.107 2.11359e-06 
647.638 2.1116e-06 
648.168 2.10399e-06 
648.698 2.09128e-06 
649.229 2.07538e-06 
649.759 2.05845e-06 
650.289 2.04219e-06 
650.819 2.02754e-06 
651.35 2.01479e-06 
651.88 2.0039e-06 
652.41 1.99466e-06 
652.94 1.98682e-06 
653.471 1.98017e-06 
654.001 1.97454e-06 
654.531 1.9698e-06 
655.062 1.96589e-06 
655.592 1.96279e-06 
656.122 1.96052e-06 
656.652 1.95913e-06 
657.183 1.9587e-06 
657.713 1.95931e-06 
658.243 1.96094e-06 
658.773 1.96342e-06 
659.304 1.96618e-06 
659.834 1.96826e-06 
660.364 1.96844e-06 
660.895 1.96579e-06 
661.425 1.96016e-06 
661.955 1.95224e-06 
662.485 1.94311e-06 
663.016 1.93378e-06 
663.546 1.92494e-06 
664.076 1.91691e-06 
664.606 1.90976e-06 
665.137 1.90341e-06 
665.667 1.89774e-06 
666.197 1.89263e-06 
666.728 1.88797e-06 
667.258 1.88366e-06 
667.788 1.87963e-06 
668.318 1.87582e-06 
668.849 1.87219e-06 
669.379 1.86869e-06 
669.909 1.8653e-06 
670.439 1.86199e-06 
670.97 1.85875e-06 
671.5 1.85557e-06 
672.03 1.85242e-06 
672.561 1.8493e-06 
673.091 1.8462e-06 
673.621 1.84312e-06 
674.151 1.84004e-06 
674.682 1.83696e-06 
675.212 1.83388e-06 
675.742 1.83079e-06 
676.272 1.82769e-06 
676.803 1.82457e-06 
677.333 1.82144e-06 
677.863 1.81828e-06 
678.394 1.81511e-06 
678.924 1.8119e-06 
679.454 1.80867e-06 
679.984 1.80542e-06 
680.515 1.80213e-06 
681.045 1.79882e-06 
681.575 1.79547e-06 
682.105 1.79209e-06 
682.636 1.78868e-06 
683.166 1.78523e-06 
683.696 1.78176e-06 
684.227 1.77826e-06 
684.757 1.77472e-06 
685.287 1.77116e-06 
685.817 1.76758e-06 
686.348 1.76398e-06 
686.878 1.76036e-06 
687.408 1.75673e-06 
687.938 1.7531e-06 
688.469 1.74947e-06 
688.999 1.74586e-06 
689.529 1.74228e-06 
690.06 1.73875e-06 
690.59 1.73528e-06 
691.12 1.73191e-06 
691.65 1.72865e-06 
692.181 1.72556e-06 
692.711 1.72267e-06 
693.241 1.72005e-06 
693.771 1.71777e-06 
694.302 1.71594e-06 
694.832 1.71467e-06 
695.362 1.71413e-06 
695.893 1.71451e-06 
696.423 1.71608e-06 
696.953 1.71913e-06 
697.483 1.72401e-06 
698.014 1.73106e-06 
698.544 1.74045e-06 
699.074 1.75196e-06 
699.604 1.76452e-06 
700.135 1.77593e-06 
700.665 1.78306e-06 
701.195 1.78302e-06 
701.726 1.77472e-06 
702.256 1.75944e-06 
702.786 1.73995e-06 
703.316 1.71919e-06 
703.847 1.6993e-06 
704.377 1.68142e-06 
704.907 1.66591e-06 
705.438 1.65269e-06 
705.968 1.6415e-06 
706.498 1.63204e-06 
707.028 1.62405e-06 
707.559 1.61735e-06 
708.089 1.6118e-06 
708.619 1.60735e-06 
709.149 1.60399e-06 
709.68 1.60178e-06 
710.21 1.60083e-06 
710.74 1.60127e-06 
711.271 1.60321e-06 
711.801 1.60662e-06 
712.331 1.61117e-06 
712.861 1.61595e-06 
713.392 1.61943e-06 
713.922 1.61981e-06 
714.452 1.61583e-06 
714.982 1.60748e-06 
715.513 1.59588e-06 
716.043 1.58271e-06 
716.573 1.56943e-06 
717.104 1.55699e-06 
717.634 1.54579e-06 
718.164 1.53591e-06 
718.694 1.52722e-06 
719.225 1.51955e-06 
719.755 1.51271e-06 
720.285 1.50656e-06 
720.815 1.50095e-06 
721.346 1.49581e-06 
721.876 1.49106e-06 
722.406 1.48665e-06 
722.937 1.48255e-06 
723.467 1.47874e-06 
723.997 1.47522e-06 
724.527 1.47202e-06 
725.058 1.46915e-06 
725.588 1.46667e-06 
726.118 1.46463e-06 
726.648 1.46312e-06 
727.179 1.46217e-06 
727.709 1.46179e-06 
728.239 1.46181e-06 
728.77 1.46185e-06 
729.3 1.46122e-06 
729.83 1.45912e-06 
730.36 1.45506e-06 
730.891 1.44917e-06 
731.421 1.44208e-06 
731.951 1.43458e-06 
732.481 1.42724e-06 
733.012 1.42035e-06 
733.542 1.41399e-06 
734.072 1.40813e-06 
734.603 1.40269e-06 
735.133 1.39758e-06 
735.663 1.39275e-06 
736.193 1.38812e-06 
736.724 1.38364e-06 
737.254 1.37927e-06 
737.784 1.37499e-06 
738.314 1.37076e-06 
738.845 1.36657e-06 
739.375 1.3624e-06 
739.905 1.35822e-06 
740.436 1.35404e-06 
740.966 1.34983e-06 
741.496 1.34559e-06 
742.026 1.34131e-06 
742.557 1.33698e-06 
743.087 1.3326e-06 
743.617 1.32814e-06 
744.147 1.32362e-06 
744.678 1.31902e-06 
745.208 1.31433e-06 
745.738 1.30955e-06 
746.269 1.30468e-06 
746.799 1.29969e-06 
747.329 1.2946e-06 
747.859 1.28938e-06 
748.39 1.28405e-06 
748.92 1.27858e-06 
749.45 1.27297e-06 
749.98 1.26722e-06 
750.511 1.26133e-06 
751.041 1.25527e-06 
751.571 1.24906e-06 
752.102 1.24269e-06 
752.632 1.23615e-06 
753.162 1.22944e-06 
753.692 1.22255e-06 
754.223 1.2155e-06 
754.753 1.20827e-06 
755.283 1.20086e-06 
755.813 1.19329e-06 
756.344 1.18556e-06 
756.874 1.17768e-06 
757.404 1.16967e-06 
757.935 1.16156e-06 
758.465 1.15337e-06 
758.995 1.14514e-06 
759.525 1.13695e-06 
760.056 1.12889e-06 
760.586 1.1211e-06 
761.116 1.11378e-06 
761.646 1.10724e-06 
762.177 1.10199e-06 
762.707 1.09886e-06 
763.237 1.09937e-06 
763.768 1.10637e-06 
764.298 1.12585e-06 
764.828 1.17177e-06 
765.358 1.28104e-06 
765.889 1.55148e-06 
766.419 2.00826e-06 
766.949 1.97047e-06 
767.479 1.54623e-06 
768.01 1.24283e-06 
768.54 1.10422e-06 
769.07 1.03426e-06 
769.601 9.92812e-07 
770.131 9.64788e-07 
770.661 9.43875e-07 
771.191 9.2715e-07 
771.722 9.13158e-07 
772.252 9.01165e-07 
772.782 8.90856e-07 
773.312 8.82197e-07 
773.843 8.75381e-07 
774.373 8.70857e-07 
774.903 8.69457e-07 
775.434 8.72596e-07 
775.964 8.82733e-07 
776.494 9.04365e-07 
777.024 9.46322e-07 
777.555 1.02765e-06 
778.085 1.19453e-06 
778.615 1.57216e-06 
779.146 2.45518e-06 
779.676 3.44354e-06 
780.206 2.94651e-06 
780.736 1.89786e-06 
781.267 1.31596e-06 
781.797 1.06259e-06 
782.327 9.40308e-07 
782.857 8.73488e-07 
783.388 8.32187e-07 
783.918 8.032e-07 
784.448 7.80612e-07 
784.979 7.62022e-07 
785.509 7.46541e-07 
786.039 7.33737e-07 
786.569 7.2324e-07 
787.1 7.14667e-07 
787.63 7.07656e-07 
788.16 7.01895e-07 
788.69 6.97124e-07 
789.221 6.93141e-07 
789.751 6.89784e-07 
790.281 6.86932e-07 
790.812 6.84487e-07 
791.342 6.82374e-07 
791.872 6.80535e-07 
792.402 6.78922e-07 
792.933 6.77499e-07 
793.463 6.76235e-07 
793.993 6.75106e-07 
794.523 6.74092e-07 
795.054 6.73178e-07 
795.584 6.72348e-07 
796.114 6.71593e-07 
796.645 6.70902e-07 
797.175 6.70268e-07 
797.705 6.69683e-07 
798.235 6.69142e-07 
798.766 6.68639e-07 
799.296 6.68169e-07 
799.826 6.6773e-07 
800.356 6.67319e-07 
800.887 6.66931e-07 
801.417 6.66564e-07 
801.947 6.66216e-07 
802.478 6.65885e-07 
803.008 6.65568e-07 
803.538 6.65265e-07 
804.068 6.64974e-07 
804.599 6.64692e-07 
805.129 6.6442e-07 
805.659 6.64155e-07 
806.189 6.63897e-07 
806.72 6.63646e-07 
807.25 6.63398e-07 
807.78 6.63154e-07 
808.311 6.62913e-07 
808.841 6.62675e-07 
809.371 6.62438e-07 
809.901 6.62201e-07 
810.432 6.61965e-07 
810.962 6.61728e-07 
811.492 6.6149e-07 
812.022 6.61251e-07 
812.553 6.61009e-07 
813.083 6.60765e-07 
813.613 6.60518e-07 
814.144 6.60267e-07 
814.674 6.60013e-07 
815.204 6.59754e-07 
815.734 6.59491e-07 
816.265 6.59224e-07 
816.795 6.58952e-07 
817.325 6.58676e-07 
817.855 6.58395e-07 
818.386 6.5811e-07 
818.916 6.5782e-07 
819.446 6.57527e-07 
819.977 6.57231e-07 
820.507 6.56931e-07 
821.037 6.56631e-07 
821.567 6.5633e-07 
822.098 6.5603e-07 
822.628 6.55732e-07 
823.158 6.5544e-07 
823.688 6.55154e-07 
824.219 6.5488e-07 
824.749 6.5462e-07 
825.279 6.54378e-07 
825.81 6.54162e-07 
826.34 6.53976e-07 
826.87 6.53831e-07 
827.4 6.53736e-07 
827.931 6.53703e-07 
828.461 6.53751e-07 
828.991 6.53898e-07 
829.521 6.54171e-07 
830.052 6.54602e-07 
830.582 6.55232e-07 
831.112 6.56117e-07 
831.643 6.57322e-07 
832.173 6.58935e-07 
832.703 6.61061e-07 
833.233 6.6382e-07 
833.764 6.67336e-07 
834.294 6.71693e-07 
834.824 6.76853e-07 
835.354 6.82512e-07 
835.885 6.87951e-07 
836.415 6.92031e-07 
836.945 6.93559e-07 
837.476 6.91947e-07 
838.006 6.87603e-07 
838.536 6.81652e-07 
839.066 6.7528e-07 
839.597 6.69298e-07 
840.127 6.64085e-07 
840.657 6.59723e-07 
841.188 6.56145e-07 
841.718 6.53234e-07 
842.248 6.50867e-07 
842.778 6.48936e-07 
843.309 6.47351e-07 
843.839 6.46043e-07 
844.369 6.44955e-07 
844.899 6.44043e-07 
845.43 6.43275e-07 
845.96 6.42624e-07 
846.49 6.42067e-07 
847.021 6.4159e-07 
847.551 6.41179e-07 
848.081 6.40823e-07 
848.611 6.40513e-07 
849.142 6.40243e-07 
849.672 6.40005e-07 
850.202 6.39797e-07 
850.732 6.39613e-07 
851.263 6.39451e-07 
851.793 6.39308e-07 
852.323 6.3918e-07 
852.854 6.39067e-07 
853.384 6.38966e-07 
853.914 6.38877e-07 
854.444 6.38797e-07 
854.975 6.38725e-07 
855.505 6.38661e-07 
856.035 6.38604e-07 
856.565 6.38553e-07 
857.096 6.38508e-07 
857.626 6.38467e-07 
858.156 6.3843e-07 
858.687 6.38397e-07 
859.217 6.38368e-07 
859.747 6.38342e-07 
860.277 6.38318e-07 
860.808 6.38297e-07 
861.338 6.38278e-07 
861.868 6.38262e-07 
862.398 6.38247e-07 
862.929 6.38233e-07 
863.459 6.38221e-07 
863.989 6.3821e-07 
864.52 6.382e-07 
865.05 6.38192e-07 
865.58 6.38184e-07 
866.11 6.38177e-07 
866.641 6.3817e-07 
867.171 6.38165e-07 
867.701 6.3816e-07 
868.231 6.38155e-07 
868.762 6.3815e-07 
869.292 6.38146e-07 
869.822 6.38142e-07 
870.353 6.38138e-07 
870.883 6.38135e-07 
871.413 6.38131e-07 
871.943 6.38128e-07 
872.474 6.38125e-07 
873.004 6.38121e-07 
873.534 6.38119e-07 
874.064 6.38115e-07 
874.595 6.38112e-07 
875.125 6.38109e-07 
875.655 6.38105e-07 
876.186 6.38102e-07 
876.716 6.38099e-07 
877.246 6.38095e-07 
877.776 6.38092e-07 
878.307 6.38088e-07 
878.837 6.38084e-07 
879.367 6.38081e-07 
879.897 6.38077e-07 
880.428 6.38073e-07 
880.958 6.38069e-07 
881.488 6.38066e-07 
882.019 6.38061e-07 
882.549 6.38057e-07 
883.079 6.38054e-07 
883.609 6.3805e-07 
884.14 6.38046e-07 
884.67 6.38042e-07 
885.2 6.38038e-07 
885.73 6.38033e-07 
886.261 6.38029e-07 
886.791 6.38025e-07 
887.321 6.38021e-07 
887.852 6.38016e-07 
888.382 6.38011e-07 
888.912 6.38007e-07 
889.442 6.38002e-07 
889.973 6.37997e-07 
890.503 6.37991e-07 
891.033 6.37985e-07 
891.563 6.37978e-07 
892.094 6.37971e-07 
892.624 6.37963e-07 
893.154 6.37954e-07 
893.685 6.37943e-07 
894.215 6.37931e-07 
894.745 6.37918e-07 
895.275 6.37904e-07 
895.806 6.37886e-07 
896.336 6.37867e-07 
896.866 6.37845e-07 
897.396 6.37819e-07 
897.927 6.3779e-07 
898.457 6.37756e-07 
898.987 6.37718e-07 
899.518 6.37675e-07 
900.048 6.37626e-07 
900.578 6.37571e-07 
901.108 6.37508e-07 
901.639 6.37437e-07 
902.169 6.37357e-07 
902.699 6.37267e-07 
903.229 6.37166e-07 
903.76 6.37053e-07 
904.29 6.36926e-07 
904.82 6.36784e-07 
905.351 6.36626e-07 
905.881 6.36451e-07 
906.411 6.36255e-07 
906.941 6.36039e-07 
907.472 6.358e-07 
908.002 6.35536e-07 
908.532 6.35244e-07 
909.062 6.34923e-07 
