#energy geo_1 
400 2.72591e-06 
400.53 2.72514e-06 
401.061 2.72436e-06 
401.591 2.72358e-06 
402.121 2.72279e-06 
402.651 2.722e-06 
403.182 2.72121e-06 
403.712 2.72041e-06 
404.242 2.7196e-06 
404.772 2.71879e-06 
405.303 2.71798e-06 
405.833 2.71716e-06 
406.363 2.71634e-06 
406.894 2.71551e-06 
407.424 2.71468e-06 
407.954 2.71385e-06 
408.484 2.713e-06 
409.015 2.71216e-06 
409.545 2.71131e-06 
410.075 2.71045e-06 
410.605 2.7096e-06 
411.136 2.70873e-06 
411.666 2.70786e-06 
412.196 2.70699e-06 
412.727 2.70611e-06 
413.257 2.70523e-06 
413.787 2.70435e-06 
414.317 2.70345e-06 
414.848 2.70256e-06 
415.378 2.70166e-06 
415.908 2.70075e-06 
416.438 2.69984e-06 
416.969 2.69893e-06 
417.499 2.69801e-06 
418.029 2.69709e-06 
418.56 2.69616e-06 
419.09 2.69522e-06 
419.62 2.69429e-06 
420.15 2.69334e-06 
420.681 2.6924e-06 
421.211 2.69144e-06 
421.741 2.69049e-06 
422.271 2.68953e-06 
422.802 2.68856e-06 
423.332 2.68759e-06 
423.862 2.68661e-06 
424.393 2.68563e-06 
424.923 2.68465e-06 
425.453 2.68366e-06 
425.983 2.68266e-06 
426.514 2.68166e-06 
427.044 2.68066e-06 
427.574 2.67965e-06 
428.104 2.67864e-06 
428.635 2.67762e-06 
429.165 2.67659e-06 
429.695 2.67556e-06 
430.226 2.67453e-06 
430.756 2.67349e-06 
431.286 2.67245e-06 
431.816 2.6714e-06 
432.347 2.67034e-06 
432.877 2.66928e-06 
433.407 2.66822e-06 
433.938 2.66715e-06 
434.468 2.66608e-06 
434.998 2.665e-06 
435.528 2.66391e-06 
436.059 2.66282e-06 
436.589 2.66172e-06 
437.119 2.66062e-06 
437.649 2.65951e-06 
438.18 2.6584e-06 
438.71 2.65728e-06 
439.24 2.65615e-06 
439.771 2.65502e-06 
440.301 2.65389e-06 
440.831 2.65274e-06 
441.361 2.6516e-06 
441.892 2.65044e-06 
442.422 2.64928e-06 
442.952 2.64811e-06 
443.482 2.64694e-06 
444.013 2.64576e-06 
444.543 2.64457e-06 
445.073 2.64337e-06 
445.604 2.64217e-06 
446.134 2.64096e-06 
446.664 2.63975e-06 
447.194 2.63852e-06 
447.725 2.63729e-06 
448.255 2.63605e-06 
448.785 2.63481e-06 
449.315 2.63355e-06 
449.846 2.63229e-06 
450.376 2.63102e-06 
450.906 2.62974e-06 
451.437 2.62846e-06 
451.967 2.62716e-06 
452.497 2.62586e-06 
453.027 2.62454e-06 
453.558 2.62322e-06 
454.088 2.62189e-06 
454.618 2.62056e-06 
455.148 2.61921e-06 
455.679 2.61786e-06 
456.209 2.61649e-06 
456.739 2.61512e-06 
457.27 2.61375e-06 
457.8 2.61236e-06 
458.33 2.61097e-06 
458.86 2.60958e-06 
459.391 2.60817e-06 
459.921 2.60677e-06 
460.451 2.60536e-06 
460.981 2.60396e-06 
461.512 2.60255e-06 
462.042 2.60114e-06 
462.572 2.59974e-06 
463.103 2.59835e-06 
463.633 2.59698e-06 
464.163 2.59562e-06 
464.693 2.59428e-06 
465.224 2.59297e-06 
465.754 2.5917e-06 
466.284 2.59048e-06 
466.814 2.58931e-06 
467.345 2.58823e-06 
467.875 2.58723e-06 
468.405 2.58636e-06 
468.936 2.58563e-06 
469.466 2.58508e-06 
469.996 2.58477e-06 
470.526 2.58476e-06 
471.057 2.58513e-06 
471.587 2.58597e-06 
472.117 2.58743e-06 
472.647 2.58965e-06 
473.178 2.59283e-06 
473.708 2.59716e-06 
474.238 2.6028e-06 
474.769 2.60972e-06 
475.299 2.61754e-06 
475.829 2.62517e-06 
476.359 2.63085e-06 
476.89 2.63253e-06 
477.42 2.62905e-06 
477.95 2.62095e-06 
478.48 2.61004e-06 
479.011 2.59831e-06 
479.541 2.58712e-06 
480.071 2.57713e-06 
480.602 2.56848e-06 
481.132 2.56108e-06 
481.662 2.55475e-06 
482.192 2.54931e-06 
482.723 2.54457e-06 
483.253 2.54042e-06 
483.783 2.53675e-06 
484.313 2.53349e-06 
484.844 2.53057e-06 
485.374 2.52797e-06 
485.904 2.52567e-06 
486.435 2.52365e-06 
486.965 2.52193e-06 
487.495 2.52053e-06 
488.025 2.51948e-06 
488.556 2.51884e-06 
489.086 2.51869e-06 
489.616 2.51911e-06 
490.146 2.52025e-06 
490.677 2.52228e-06 
491.207 2.52541e-06 
491.737 2.52994e-06 
492.268 2.53621e-06 
492.798 2.54462e-06 
493.328 2.55559e-06 
493.858 2.56937e-06 
494.389 2.58578e-06 
494.919 2.6037e-06 
495.449 2.62054e-06 
495.979 2.63227e-06 
496.51 2.6348e-06 
497.04 2.62645e-06 
497.57 2.60909e-06 
498.101 2.58684e-06 
498.631 2.56367e-06 
499.161 2.54208e-06 
499.691 2.52316e-06 
500.222 2.50708e-06 
500.752 2.49358e-06 
501.282 2.48226e-06 
501.812 2.47274e-06 
502.343 2.46468e-06 
502.873 2.45782e-06 
503.403 2.45194e-06 
503.934 2.44691e-06 
504.464 2.44262e-06 
504.994 2.439e-06 
505.524 2.43602e-06 
506.055 2.43366e-06 
506.585 2.43195e-06 
507.115 2.43093e-06 
507.646 2.4307e-06 
508.176 2.43136e-06 
508.706 2.43307e-06 
509.236 2.43605e-06 
509.767 2.44059e-06 
510.297 2.44706e-06 
510.827 2.45593e-06 
511.357 2.46781e-06 
511.888 2.48343e-06 
512.418 2.50364e-06 
512.948 2.5292e-06 
513.479 2.56052e-06 
514.009 2.5969e-06 
514.539 2.63544e-06 
515.069 2.67013e-06 
515.6 2.69241e-06 
516.13 2.69471e-06 
516.66 2.67523e-06 
517.19 2.63917e-06 
517.721 2.59516e-06 
518.251 2.55066e-06 
518.781 2.51005e-06 
519.312 2.475e-06 
519.842 2.44556e-06 
520.372 2.4211e-06 
520.902 2.40078e-06 
521.433 2.3838e-06 
521.963 2.36949e-06 
522.493 2.35729e-06 
523.023 2.34678e-06 
523.554 2.33761e-06 
524.084 2.32953e-06 
524.614 2.32231e-06 
525.145 2.31581e-06 
525.675 2.30989e-06 
526.205 2.30445e-06 
526.735 2.29942e-06 
527.266 2.29472e-06 
527.796 2.2903e-06 
528.326 2.28613e-06 
528.856 2.28215e-06 
529.387 2.27835e-06 
529.917 2.2747e-06 
530.447 2.27118e-06 
530.978 2.26777e-06 
531.508 2.26446e-06 
532.038 2.26123e-06 
532.568 2.25807e-06 
533.099 2.25498e-06 
533.629 2.25195e-06 
534.159 2.24896e-06 
534.689 2.24602e-06 
535.22 2.24312e-06 
535.75 2.24025e-06 
536.28 2.23741e-06 
536.811 2.2346e-06 
537.341 2.2318e-06 
537.871 2.22904e-06 
538.401 2.22629e-06 
538.932 2.22355e-06 
539.462 2.22083e-06 
539.992 2.21812e-06 
540.522 2.21543e-06 
541.053 2.21274e-06 
541.583 2.21006e-06 
542.113 2.20739e-06 
542.644 2.20473e-06 
543.174 2.20208e-06 
543.704 2.19943e-06 
544.234 2.19679e-06 
544.765 2.19416e-06 
545.295 2.19153e-06 
545.825 2.18892e-06 
546.355 2.18631e-06 
546.886 2.18372e-06 
547.416 2.18114e-06 
547.946 2.17858e-06 
548.477 2.17604e-06 
549.007 2.17353e-06 
549.537 2.17107e-06 
550.067 2.16864e-06 
550.598 2.16628e-06 
551.128 2.16398e-06 
551.658 2.16175e-06 
552.188 2.15957e-06 
552.719 2.1574e-06 
553.249 2.15515e-06 
553.779 2.15272e-06 
554.31 2.15003e-06 
554.84 2.14709e-06 
555.37 2.14398e-06 
555.9 2.14081e-06 
556.431 2.13766e-06 
556.961 2.13457e-06 
557.491 2.13155e-06 
558.021 2.12859e-06 
558.552 2.12569e-06 
559.082 2.12284e-06 
559.612 2.12003e-06 
560.143 2.11725e-06 
560.673 2.11451e-06 
561.203 2.11179e-06 
561.733 2.10909e-06 
562.264 2.10643e-06 
562.794 2.1038e-06 
563.324 2.1012e-06 
563.854 2.09864e-06 
564.385 2.09613e-06 
564.915 2.09365e-06 
565.445 2.09119e-06 
565.976 2.08872e-06 
566.506 2.08616e-06 
567.036 2.08345e-06 
567.566 2.08059e-06 
568.097 2.07759e-06 
568.627 2.07451e-06 
569.157 2.07142e-06 
569.688 2.06834e-06 
570.218 2.0653e-06 
570.748 2.0623e-06 
571.278 2.05933e-06 
571.809 2.05638e-06 
572.339 2.05345e-06 
572.869 2.05053e-06 
573.399 2.04762e-06 
573.93 2.04472e-06 
574.46 2.04182e-06 
574.99 2.03891e-06 
575.521 2.03601e-06 
576.051 2.0331e-06 
576.581 2.03019e-06 
577.111 2.02727e-06 
577.642 2.02435e-06 
578.172 2.02142e-06 
578.702 2.01848e-06 
579.232 2.01554e-06 
579.763 2.01259e-06 
580.293 2.00964e-06 
580.823 2.00668e-06 
581.354 2.00372e-06 
581.884 2.00075e-06 
582.414 1.99779e-06 
582.944 1.99482e-06 
583.475 1.99186e-06 
584.005 1.98891e-06 
584.535 1.98596e-06 
585.065 1.98303e-06 
585.596 1.98012e-06 
586.126 1.97723e-06 
586.656 1.97439e-06 
587.187 1.97159e-06 
587.717 1.96886e-06 
588.247 1.96621e-06 
588.777 1.96367e-06 
589.308 1.96128e-06 
589.838 1.95906e-06 
590.368 1.95707e-06 
590.898 1.95535e-06 
591.429 1.95391e-06 
591.959 1.95274e-06 
592.489 1.9517e-06 
593.02 1.95051e-06 
593.55 1.94874e-06 
594.08 1.946e-06 
594.61 1.94217e-06 
595.141 1.93748e-06 
595.671 1.93236e-06 
596.201 1.9272e-06 
596.731 1.92224e-06 
597.262 1.91757e-06 
597.792 1.9132e-06 
598.322 1.90911e-06 
598.853 1.90525e-06 
599.383 1.9016e-06 
599.913 1.89813e-06 
600.443 1.89481e-06 
600.974 1.89163e-06 
601.504 1.88859e-06 
602.034 1.88571e-06 
602.564 1.88299e-06 
603.095 1.88045e-06 
603.625 1.87813e-06 
604.155 1.87604e-06 
604.686 1.8742e-06 
605.216 1.87258e-06 
605.746 1.87103e-06 
606.276 1.86933e-06 
606.807 1.86715e-06 
607.337 1.8642e-06 
607.867 1.86044e-06 
608.397 1.85606e-06 
608.928 1.85137e-06 
609.458 1.84666e-06 
609.988 1.8421e-06 
610.519 1.83777e-06 
611.049 1.83366e-06 
611.579 1.82976e-06 
612.109 1.82602e-06 
612.64 1.82243e-06 
613.17 1.81894e-06 
613.7 1.81555e-06 
614.23 1.81223e-06 
614.761 1.80897e-06 
615.291 1.80577e-06 
615.821 1.80262e-06 
616.352 1.79952e-06 
616.882 1.79646e-06 
617.412 1.79347e-06 
617.942 1.79052e-06 
618.473 1.78762e-06 
619.003 1.78474e-06 
619.533 1.78183e-06 
620.063 1.77882e-06 
620.594 1.77564e-06 
621.124 1.77229e-06 
621.654 1.76879e-06 
622.185 1.76521e-06 
622.715 1.76162e-06 
623.245 1.75803e-06 
623.775 1.75448e-06 
624.306 1.75096e-06 
624.836 1.74747e-06 
625.366 1.74399e-06 
625.896 1.74052e-06 
626.427 1.73706e-06 
626.957 1.73359e-06 
627.487 1.73012e-06 
628.018 1.72664e-06 
628.548 1.72314e-06 
629.078 1.71964e-06 
629.608 1.71612e-06 
630.139 1.71259e-06 
630.669 1.70905e-06 
631.199 1.70549e-06 
631.729 1.70192e-06 
632.26 1.69835e-06 
632.79 1.69476e-06 
633.32 1.69118e-06 
633.851 1.68759e-06 
634.381 1.68402e-06 
634.911 1.68046e-06 
635.441 1.67694e-06 
635.972 1.67346e-06 
636.502 1.67007e-06 
637.032 1.66679e-06 
637.562 1.66369e-06 
638.093 1.66087e-06 
638.623 1.65851e-06 
639.153 1.65696e-06 
639.684 1.65692e-06 
640.214 1.66008e-06 
640.744 1.6709e-06 
641.274 1.70102e-06 
641.805 1.74858e-06 
642.335 1.72942e-06 
642.865 1.68186e-06 
643.396 1.65316e-06 
643.926 1.63982e-06 
644.456 1.63303e-06 
644.986 1.6293e-06 
645.517 1.62727e-06 
646.047 1.62617e-06 
646.577 1.6253e-06 
647.107 1.62393e-06 
647.638 1.62137e-06 
648.168 1.61728e-06 
648.698 1.61184e-06 
649.229 1.60552e-06 
649.759 1.59892e-06 
650.289 1.59248e-06 
650.819 1.58645e-06 
651.35 1.5809e-06 
651.88 1.57583e-06 
652.41 1.57119e-06 
652.94 1.56691e-06 
653.471 1.56295e-06 
654.001 1.55925e-06 
654.531 1.5558e-06 
655.062 1.55257e-06 
655.592 1.54957e-06 
656.122 1.54681e-06 
656.652 1.5443e-06 
657.183 1.54208e-06 
657.713 1.54018e-06 
658.243 1.53858e-06 
658.773 1.53724e-06 
659.304 1.53597e-06 
659.834 1.53449e-06 
660.364 1.5324e-06 
660.895 1.52943e-06 
661.425 1.52553e-06 
661.955 1.52094e-06 
662.485 1.51598e-06 
663.016 1.51096e-06 
663.546 1.50611e-06 
664.076 1.50151e-06 
664.606 1.49718e-06 
665.137 1.4931e-06 
665.667 1.48922e-06 
666.197 1.48552e-06 
666.728 1.48195e-06 
667.258 1.47849e-06 
667.788 1.47511e-06 
668.318 1.4718e-06 
668.849 1.46854e-06 
669.379 1.46533e-06 
669.909 1.46214e-06 
670.439 1.45898e-06 
670.97 1.45584e-06 
671.5 1.45271e-06 
672.03 1.44959e-06 
672.561 1.44648e-06 
673.091 1.44337e-06 
673.621 1.44027e-06 
674.151 1.43717e-06 
674.682 1.43406e-06 
675.212 1.43095e-06 
675.742 1.42784e-06 
676.272 1.42473e-06 
676.803 1.4216e-06 
677.333 1.41847e-06 
677.863 1.41533e-06 
678.394 1.41219e-06 
678.924 1.40903e-06 
679.454 1.40587e-06 
679.984 1.40269e-06 
680.515 1.3995e-06 
681.045 1.3963e-06 
681.575 1.39309e-06 
682.105 1.38987e-06 
682.636 1.38664e-06 
683.166 1.38339e-06 
683.696 1.38014e-06 
684.227 1.37687e-06 
684.757 1.37359e-06 
685.287 1.3703e-06 
685.817 1.367e-06 
686.348 1.3637e-06 
686.878 1.36038e-06 
687.408 1.35706e-06 
687.938 1.35374e-06 
688.469 1.35042e-06 
688.999 1.3471e-06 
689.529 1.34378e-06 
690.06 1.34048e-06 
690.59 1.3372e-06 
691.12 1.33394e-06 
691.65 1.33071e-06 
692.181 1.32753e-06 
692.711 1.32441e-06 
693.241 1.32137e-06 
693.771 1.31843e-06 
694.302 1.31562e-06 
694.832 1.31298e-06 
695.362 1.31056e-06 
695.893 1.30841e-06 
696.423 1.30661e-06 
696.953 1.30525e-06 
697.483 1.30445e-06 
698.014 1.30429e-06 
698.544 1.30483e-06 
699.074 1.30601e-06 
699.604 1.30753e-06 
700.135 1.30874e-06 
700.665 1.30871e-06 
701.195 1.30658e-06 
701.726 1.302e-06 
702.256 1.29534e-06 
702.786 1.2874e-06 
703.316 1.27906e-06 
703.847 1.27095e-06 
704.377 1.26344e-06 
704.907 1.25664e-06 
705.438 1.25053e-06 
705.968 1.24502e-06 
706.498 1.24003e-06 
707.028 1.23548e-06 
707.559 1.2313e-06 
708.089 1.22745e-06 
708.619 1.22391e-06 
709.149 1.22067e-06 
709.68 1.21774e-06 
710.21 1.21514e-06 
710.74 1.2129e-06 
711.271 1.21106e-06 
711.801 1.20959e-06 
712.331 1.20843e-06 
712.861 1.20734e-06 
713.392 1.20596e-06 
713.922 1.20382e-06 
714.452 1.20063e-06 
714.982 1.19635e-06 
715.513 1.19126e-06 
716.043 1.18576e-06 
716.573 1.18024e-06 
717.104 1.17492e-06 
717.634 1.16991e-06 
718.164 1.16525e-06 
718.694 1.16088e-06 
719.225 1.15678e-06 
719.755 1.1529e-06 
720.285 1.14919e-06 
720.815 1.14562e-06 
721.346 1.14218e-06 
721.876 1.13884e-06 
722.406 1.1356e-06 
722.937 1.13244e-06 
723.467 1.12936e-06 
723.997 1.12637e-06 
724.527 1.12346e-06 
725.058 1.12065e-06 
725.588 1.11796e-06 
726.118 1.1154e-06 
726.648 1.11299e-06 
727.179 1.11076e-06 
727.709 1.10869e-06 
728.239 1.10675e-06 
728.77 1.10481e-06 
729.3 1.10269e-06 
729.83 1.10013e-06 
730.36 1.09701e-06 
730.891 1.09335e-06 
731.421 1.08935e-06 
731.951 1.08524e-06 
732.481 1.08118e-06 
733.012 1.07725e-06 
733.542 1.07349e-06 
734.072 1.06987e-06 
734.603 1.06639e-06 
735.133 1.06301e-06 
735.663 1.05971e-06 
736.193 1.05647e-06 
736.724 1.05329e-06 
737.254 1.05014e-06 
737.784 1.04702e-06 
738.314 1.04392e-06 
738.845 1.04084e-06 
739.375 1.03776e-06 
739.905 1.03469e-06 
740.436 1.03161e-06 
740.966 1.02853e-06 
741.496 1.02545e-06 
742.026 1.02235e-06 
742.557 1.01925e-06 
743.087 1.01613e-06 
743.617 1.01298e-06 
744.147 1.00982e-06 
744.678 1.00664e-06 
745.208 1.00343e-06 
745.738 1.0002e-06 
746.269 9.9693e-07 
746.799 9.93632e-07 
747.329 9.90297e-07 
747.859 9.86925e-07 
748.39 9.83514e-07 
748.92 9.80061e-07 
749.45 9.76563e-07 
749.98 9.73018e-07 
750.511 9.69424e-07 
751.041 9.65778e-07 
751.571 9.62078e-07 
752.102 9.58324e-07 
752.632 9.54512e-07 
753.162 9.5064e-07 
753.692 9.46708e-07 
754.223 9.42717e-07 
754.753 9.38663e-07 
755.283 9.34548e-07 
755.813 9.30374e-07 
756.344 9.26142e-07 
756.874 9.21855e-07 
757.404 9.17518e-07 
757.935 9.13142e-07 
758.465 9.08733e-07 
758.995 9.04307e-07 
759.525 8.99889e-07 
760.056 8.95509e-07 
760.586 8.91211e-07 
761.116 8.87065e-07 
761.646 8.8318e-07 
762.177 8.79724e-07 
762.707 8.76982e-07 
763.237 8.75465e-07 
763.768 8.76145e-07 
764.298 8.81046e-07 
764.828 8.94909e-07 
765.358 9.30238e-07 
765.889 1.02019e-06 
766.419 1.17331e-06 
766.949 1.15899e-06 
767.479 1.01385e-06 
768.01 9.09702e-07 
768.54 8.614e-07 
769.07 8.3636e-07 
769.601 8.20978e-07 
770.131 8.10141e-07 
770.661 8.01708e-07 
771.191 7.94685e-07 
771.722 7.88581e-07 
772.252 7.83144e-07 
772.782 7.78268e-07 
773.312 7.73942e-07 
773.843 7.7023e-07 
774.373 7.67282e-07 
774.903 7.65377e-07 
775.434 7.64995e-07 
775.964 7.66959e-07 
776.494 7.72781e-07 
777.024 7.85429e-07 
777.555 8.113e-07 
778.085 8.65897e-07 
778.615 9.91252e-07 
779.146 1.28628e-06 
779.676 1.61683e-06 
780.206 1.44919e-06 
780.736 1.09667e-06 
781.267 9.00893e-07 
781.797 8.15408e-07 
782.327 7.73956e-07 
782.857 7.5117e-07 
783.388 7.37022e-07 
783.918 7.27091e-07 
784.448 7.19384e-07 
784.979 7.13069e-07 
785.509 7.07817e-07 
786.039 7.03464e-07 
786.569 6.99874e-07 
787.1 6.96916e-07 
787.63 6.94468e-07 
788.16 6.92429e-07 
788.69 6.90713e-07 
789.221 6.89254e-07 
789.751 6.88001e-07 
790.281 6.86912e-07 
790.812 6.85956e-07 
791.342 6.85111e-07 
791.872 6.84355e-07 
792.402 6.83674e-07 
792.933 6.83056e-07 
793.463 6.82491e-07 
793.993 6.81971e-07 
794.523 6.81489e-07 
795.054 6.8104e-07 
795.584 6.8062e-07 
796.114 6.80226e-07 
796.645 6.79853e-07 
797.175 6.79498e-07 
797.705 6.79161e-07 
798.235 6.78839e-07 
798.766 6.78531e-07 
799.296 6.78233e-07 
799.826 6.77947e-07 
800.356 6.77669e-07 
800.887 6.77401e-07 
801.417 6.77139e-07 
801.947 6.76885e-07 
802.478 6.76636e-07 
803.008 6.76393e-07 
803.538 6.76155e-07 
804.068 6.75921e-07 
804.599 6.7569e-07 
805.129 6.75464e-07 
805.659 6.7524e-07 
806.189 6.75019e-07 
806.72 6.748e-07 
807.25 6.74584e-07 
807.78 6.74369e-07 
808.311 6.74155e-07 
808.841 6.73943e-07 
809.371 6.73731e-07 
809.901 6.7352e-07 
810.432 6.7331e-07 
810.962 6.731e-07 
811.492 6.7289e-07 
812.022 6.7268e-07 
812.553 6.72469e-07 
813.083 6.72258e-07 
813.613 6.72046e-07 
814.144 6.71834e-07 
814.674 6.71621e-07 
815.204 6.71406e-07 
815.734 6.71191e-07 
816.265 6.70974e-07 
816.795 6.70756e-07 
817.325 6.70537e-07 
817.855 6.70316e-07 
818.386 6.70094e-07 
818.916 6.6987e-07 
819.446 6.69646e-07 
819.977 6.6942e-07 
820.507 6.69194e-07 
821.037 6.68967e-07 
821.567 6.68739e-07 
822.098 6.68512e-07 
822.628 6.68284e-07 
823.158 6.68059e-07 
823.688 6.67834e-07 
824.219 6.67613e-07 
824.749 6.67395e-07 
825.279 6.67182e-07 
825.81 6.66976e-07 
826.34 6.66778e-07 
826.87 6.66591e-07 
827.4 6.66418e-07 
827.931 6.66262e-07 
828.461 6.66128e-07 
828.991 6.66022e-07 
829.521 6.65951e-07 
830.052 6.65924e-07 
830.582 6.65952e-07 
831.112 6.66051e-07 
831.643 6.66241e-07 
832.173 6.66543e-07 
832.703 6.66988e-07 
833.233 6.6761e-07 
833.764 6.68444e-07 
834.294 6.69513e-07 
834.824 6.70807e-07 
835.354 6.72242e-07 
835.885 6.7362e-07 
836.415 6.74626e-07 
836.945 6.74929e-07 
837.476 6.74367e-07 
838.006 6.73054e-07 
838.536 6.713e-07 
839.066 6.69432e-07 
839.597 6.67677e-07 
840.127 6.66138e-07 
840.657 6.64837e-07 
841.188 6.63755e-07 
841.718 6.6286e-07 
842.248 6.62116e-07 
842.778 6.61496e-07 
843.309 6.60972e-07 
843.839 6.60526e-07 
844.369 6.60142e-07 
844.899 6.59808e-07 
845.43 6.59515e-07 
845.96 6.59255e-07 
846.49 6.59022e-07 
847.021 6.5881e-07 
847.551 6.58619e-07 
848.081 6.58443e-07 
848.611 6.58281e-07 
849.142 6.5813e-07 
849.672 6.57989e-07 
850.202 6.57857e-07 
850.732 6.57732e-07 
851.263 6.57613e-07 
851.793 6.575e-07 
852.323 6.57393e-07 
852.854 6.5729e-07 
853.384 6.57191e-07 
853.914 6.57095e-07 
854.444 6.57003e-07 
854.975 6.56913e-07 
855.505 6.56827e-07 
856.035 6.56742e-07 
856.565 6.5666e-07 
857.096 6.5658e-07 
857.626 6.56502e-07 
858.156 6.56426e-07 
858.687 6.56352e-07 
859.217 6.56279e-07 
859.747 6.56207e-07 
860.277 6.56137e-07 
860.808 6.56068e-07 
861.338 6.56001e-07 
861.868 6.55935e-07 
862.398 6.55869e-07 
862.929 6.55805e-07 
863.459 6.55742e-07 
863.989 6.55681e-07 
864.52 6.5562e-07 
865.05 6.5556e-07 
865.58 6.55502e-07 
866.11 6.55444e-07 
866.641 6.55387e-07 
867.171 6.55331e-07 
867.701 6.55277e-07 
868.231 6.55223e-07 
868.762 6.5517e-07 
869.292 6.55118e-07 
869.822 6.55067e-07 
870.353 6.55018e-07 
870.883 6.54969e-07 
871.413 6.54921e-07 
871.943 6.54874e-07 
872.474 6.54828e-07 
873.004 6.54783e-07 
873.534 6.5474e-07 
874.064 6.54697e-07 
874.595 6.54655e-07 
875.125 6.54615e-07 
875.655 6.54576e-07 
876.186 6.54538e-07 
876.716 6.54501e-07 
877.246 6.54465e-07 
877.776 6.5443e-07 
878.307 6.54397e-07 
878.837 6.54365e-07 
879.367 6.54334e-07 
879.897 6.54305e-07 
880.428 6.54277e-07 
880.958 6.5425e-07 
881.488 6.54225e-07 
882.019 6.54201e-07 
882.549 6.54179e-07 
883.079 6.54158e-07 
883.609 6.54139e-07 
884.14 6.54121e-07 
884.67 6.54105e-07 
885.2 6.5409e-07 
885.73 6.54076e-07 
886.261 6.54065e-07 
886.791 6.54055e-07 
887.321 6.54046e-07 
887.852 6.54039e-07 
888.382 6.54033e-07 
888.912 6.54029e-07 
889.442 6.54027e-07 
889.973 6.54025e-07 
890.503 6.54025e-07 
891.033 6.54027e-07 
891.563 6.5403e-07 
892.094 6.54033e-07 
892.624 6.54038e-07 
893.154 6.54044e-07 
893.685 6.5405e-07 
894.215 6.54057e-07 
894.745 6.54065e-07 
895.275 6.54073e-07 
895.806 6.5408e-07 
896.336 6.54088e-07 
896.866 6.54095e-07 
897.396 6.54101e-07 
897.927 6.54105e-07 
898.457 6.54108e-07 
898.987 6.54109e-07 
899.518 6.54107e-07 
900.048 6.54102e-07 
900.578 6.54094e-07 
901.108 6.54081e-07 
901.639 6.54063e-07 
902.169 6.5404e-07 
902.699 6.5401e-07 
903.229 6.53972e-07 
903.76 6.53926e-07 
904.29 6.53871e-07 
904.82 6.53805e-07 
905.351 6.53728e-07 
905.881 6.53637e-07 
906.411 6.53532e-07 
906.941 6.53411e-07 
907.472 6.53274e-07 
908.002 6.53117e-07 
908.532 6.52939e-07 
909.062 6.52738e-07 
909.593 6.52514e-07 
