#energy geo_1 
400 3.29266e-06 
400.53 3.2932e-06 
401.061 3.29374e-06 
401.591 3.29428e-06 
402.121 3.29481e-06 
402.651 3.29534e-06 
403.182 3.29587e-06 
403.712 3.29639e-06 
404.242 3.29691e-06 
404.772 3.29743e-06 
405.303 3.29794e-06 
405.833 3.29845e-06 
406.363 3.29895e-06 
406.894 3.29946e-06 
407.424 3.29996e-06 
407.954 3.30045e-06 
408.484 3.30094e-06 
409.015 3.30143e-06 
409.545 3.30192e-06 
410.075 3.3024e-06 
410.605 3.30288e-06 
411.136 3.30335e-06 
411.666 3.30382e-06 
412.196 3.30429e-06 
412.727 3.30475e-06 
413.257 3.30521e-06 
413.787 3.30567e-06 
414.317 3.30612e-06 
414.848 3.30657e-06 
415.378 3.30701e-06 
415.908 3.30745e-06 
416.438 3.30789e-06 
416.969 3.30832e-06 
417.499 3.30875e-06 
418.029 3.30918e-06 
418.56 3.3096e-06 
419.09 3.31002e-06 
419.62 3.31043e-06 
420.15 3.31084e-06 
420.681 3.31125e-06 
421.211 3.31165e-06 
421.741 3.31204e-06 
422.271 3.31244e-06 
422.802 3.31283e-06 
423.332 3.31321e-06 
423.862 3.31359e-06 
424.393 3.31397e-06 
424.923 3.31434e-06 
425.453 3.31471e-06 
425.983 3.31508e-06 
426.514 3.31544e-06 
427.044 3.31579e-06 
427.574 3.31614e-06 
428.104 3.31649e-06 
428.635 3.31683e-06 
429.165 3.31717e-06 
429.695 3.3175e-06 
430.226 3.31783e-06 
430.756 3.31815e-06 
431.286 3.31847e-06 
431.816 3.31879e-06 
432.347 3.31909e-06 
432.877 3.3194e-06 
433.407 3.3197e-06 
433.938 3.31999e-06 
434.468 3.32028e-06 
434.998 3.32057e-06 
435.528 3.32085e-06 
436.059 3.32112e-06 
436.589 3.32139e-06 
437.119 3.32165e-06 
437.649 3.32191e-06 
438.18 3.32216e-06 
438.71 3.3224e-06 
439.24 3.32264e-06 
439.771 3.32287e-06 
440.301 3.3231e-06 
440.831 3.32332e-06 
441.361 3.32353e-06 
441.892 3.32374e-06 
442.422 3.32394e-06 
442.952 3.32414e-06 
443.482 3.32432e-06 
444.013 3.3245e-06 
444.543 3.32467e-06 
445.073 3.32484e-06 
445.604 3.32499e-06 
446.134 3.32514e-06 
446.664 3.32528e-06 
447.194 3.32541e-06 
447.725 3.32553e-06 
448.255 3.32565e-06 
448.785 3.32575e-06 
449.315 3.32585e-06 
449.846 3.32593e-06 
450.376 3.32601e-06 
450.906 3.32608e-06 
451.437 3.32613e-06 
451.967 3.32618e-06 
452.497 3.32622e-06 
453.027 3.32624e-06 
453.558 3.32626e-06 
454.088 3.32627e-06 
454.618 3.32626e-06 
455.148 3.32625e-06 
455.679 3.32622e-06 
456.209 3.32618e-06 
456.739 3.32614e-06 
457.27 3.32608e-06 
457.8 3.32602e-06 
458.33 3.32594e-06 
458.86 3.32586e-06 
459.391 3.32577e-06 
459.921 3.32568e-06 
460.451 3.32558e-06 
460.981 3.32548e-06 
461.512 3.32538e-06 
462.042 3.32528e-06 
462.572 3.32519e-06 
463.103 3.3251e-06 
463.633 3.32503e-06 
464.163 3.32497e-06 
464.693 3.32494e-06 
465.224 3.32494e-06 
465.754 3.32498e-06 
466.284 3.32507e-06 
466.814 3.32523e-06 
467.345 3.32548e-06 
467.875 3.32583e-06 
468.405 3.32631e-06 
468.936 3.32696e-06 
469.466 3.32782e-06 
469.996 3.32895e-06 
470.526 3.33042e-06 
471.057 3.33233e-06 
471.587 3.33477e-06 
472.117 3.33792e-06 
472.647 3.34195e-06 
473.178 3.34707e-06 
473.708 3.35352e-06 
474.238 3.36147e-06 
474.769 3.37089e-06 
475.299 3.38133e-06 
475.829 3.39158e-06 
476.359 3.39957e-06 
476.89 3.40298e-06 
477.42 3.40049e-06 
477.95 3.39268e-06 
478.48 3.38166e-06 
479.011 3.3697e-06 
479.541 3.35836e-06 
480.071 3.34839e-06 
480.602 3.33995e-06 
481.132 3.33296e-06 
481.662 3.32718e-06 
482.192 3.32241e-06 
482.723 3.31846e-06 
483.253 3.31517e-06 
483.783 3.31242e-06 
484.313 3.31013e-06 
484.844 3.30823e-06 
485.374 3.30669e-06 
485.904 3.30546e-06 
486.435 3.30456e-06 
486.965 3.30398e-06 
487.495 3.30374e-06 
488.025 3.30389e-06 
488.556 3.30447e-06 
489.086 3.30558e-06 
489.616 3.30731e-06 
490.146 3.30982e-06 
490.677 3.31327e-06 
491.207 3.31792e-06 
491.737 3.32408e-06 
492.268 3.33211e-06 
492.798 3.34245e-06 
493.328 3.35555e-06 
493.858 3.37168e-06 
494.389 3.39065e-06 
494.919 3.41126e-06 
495.449 3.43071e-06 
495.979 3.44462e-06 
496.51 3.44862e-06 
497.04 3.44087e-06 
497.57 3.4234e-06 
498.101 3.40066e-06 
498.631 3.37691e-06 
499.161 3.35488e-06 
499.691 3.33573e-06 
500.222 3.31965e-06 
500.752 3.30634e-06 
501.282 3.29539e-06 
501.812 3.28638e-06 
502.343 3.27894e-06 
502.873 3.2728e-06 
503.403 3.26772e-06 
503.934 3.26356e-06 
504.464 3.26019e-06 
504.994 3.25755e-06 
505.524 3.2556e-06 
506.055 3.25434e-06 
506.585 3.25379e-06 
507.115 3.254e-06 
507.646 3.25507e-06 
508.176 3.25714e-06 
508.706 3.26037e-06 
509.236 3.26503e-06 
509.767 3.27142e-06 
510.297 3.27996e-06 
510.827 3.2912e-06 
511.357 3.3058e-06 
511.888 3.32461e-06 
512.418 3.34855e-06 
512.948 3.3785e-06 
513.479 3.41491e-06 
514.009 3.45699e-06 
514.539 3.50151e-06 
515.069 3.54173e-06 
515.6 3.56804e-06 
516.13 3.57198e-06 
516.66 3.55151e-06 
517.19 3.51248e-06 
517.721 3.46453e-06 
518.251 3.41606e-06 
518.781 3.37197e-06 
519.312 3.3341e-06 
519.842 3.30254e-06 
520.372 3.27656e-06 
520.902 3.25523e-06 
521.433 3.23764e-06 
521.963 3.22305e-06 
522.493 3.21082e-06 
523.023 3.20048e-06 
523.554 3.19165e-06 
524.084 3.18402e-06 
524.614 3.17737e-06 
525.145 3.17151e-06 
525.675 3.16631e-06 
526.205 3.16164e-06 
526.735 3.15741e-06 
527.266 3.15355e-06 
527.796 3.15001e-06 
528.326 3.14673e-06 
528.856 3.14367e-06 
529.387 3.14079e-06 
529.917 3.13808e-06 
530.447 3.13551e-06 
530.978 3.13305e-06 
531.508 3.13069e-06 
532.038 3.12842e-06 
532.568 3.12623e-06 
533.099 3.1241e-06 
533.629 3.12202e-06 
534.159 3.11999e-06 
534.689 3.118e-06 
535.22 3.11605e-06 
535.75 3.11413e-06 
536.28 3.11223e-06 
536.811 3.11035e-06 
537.341 3.10849e-06 
537.871 3.10664e-06 
538.401 3.10482e-06 
538.932 3.103e-06 
539.462 3.10119e-06 
539.992 3.09939e-06 
540.522 3.0976e-06 
541.053 3.09582e-06 
541.583 3.09404e-06 
542.113 3.09228e-06 
542.644 3.09054e-06 
543.174 3.0888e-06 
543.704 3.08709e-06 
544.234 3.0854e-06 
544.765 3.08374e-06 
545.295 3.08212e-06 
545.825 3.08055e-06 
546.355 3.07905e-06 
546.886 3.07762e-06 
547.416 3.0763e-06 
547.946 3.07511e-06 
548.477 3.07409e-06 
549.007 3.07329e-06 
549.537 3.07277e-06 
550.067 3.0726e-06 
550.598 3.07286e-06 
551.128 3.07361e-06 
551.658 3.07486e-06 
552.188 3.07651e-06 
552.719 3.07819e-06 
553.249 3.07929e-06 
553.779 3.07903e-06 
554.31 3.07686e-06 
554.84 3.07285e-06 
555.37 3.06762e-06 
555.9 3.06194e-06 
556.431 3.05639e-06 
556.961 3.05127e-06 
557.491 3.04667e-06 
558.021 3.04257e-06 
558.552 3.03892e-06 
559.082 3.03564e-06 
559.612 3.03266e-06 
560.143 3.02995e-06 
560.673 3.02748e-06 
561.203 3.02522e-06 
561.733 3.02316e-06 
562.264 3.02133e-06 
562.794 3.01973e-06 
563.324 3.0184e-06 
563.854 3.01736e-06 
564.385 3.01663e-06 
564.915 3.01619e-06 
565.445 3.01591e-06 
565.976 3.0155e-06 
566.506 3.01454e-06 
567.036 3.01262e-06 
567.566 3.00958e-06 
568.097 3.00562e-06 
568.627 3.00118e-06 
569.157 2.99664e-06 
569.688 2.99225e-06 
570.218 2.98811e-06 
570.748 2.98424e-06 
571.278 2.98061e-06 
571.809 2.97717e-06 
572.339 2.97389e-06 
572.869 2.97071e-06 
573.399 2.96762e-06 
573.93 2.96458e-06 
574.46 2.96158e-06 
574.99 2.95861e-06 
575.521 2.95565e-06 
576.051 2.9527e-06 
576.581 2.94975e-06 
577.111 2.94679e-06 
577.642 2.94382e-06 
578.172 2.94084e-06 
578.702 2.93785e-06 
579.232 2.93486e-06 
579.763 2.93185e-06 
580.293 2.92884e-06 
580.823 2.92584e-06 
581.354 2.92284e-06 
581.884 2.91986e-06 
582.414 2.91691e-06 
582.944 2.914e-06 
583.475 2.91115e-06 
584.005 2.90839e-06 
584.535 2.90573e-06 
585.065 2.90322e-06 
585.596 2.9009e-06 
586.126 2.89881e-06 
586.656 2.89704e-06 
587.187 2.89567e-06 
587.717 2.89481e-06 
588.247 2.89461e-06 
588.777 2.89525e-06 
589.308 2.89697e-06 
589.838 2.90005e-06 
590.368 2.9048e-06 
590.898 2.91155e-06 
591.429 2.92046e-06 
591.959 2.93133e-06 
592.489 2.94318e-06 
593.02 2.95384e-06 
593.55 2.96019e-06 
594.08 2.9593e-06 
594.61 2.95028e-06 
595.141 2.93486e-06 
595.671 2.91622e-06 
596.201 2.89724e-06 
596.731 2.87969e-06 
597.262 2.86432e-06 
597.792 2.8512e-06 
598.322 2.84014e-06 
598.853 2.83086e-06 
599.383 2.82309e-06 
599.913 2.81663e-06 
600.443 2.81133e-06 
600.974 2.80711e-06 
601.504 2.80397e-06 
602.034 2.80194e-06 
602.564 2.80114e-06 
603.095 2.80172e-06 
603.625 2.80388e-06 
604.155 2.80782e-06 
604.686 2.81359e-06 
605.216 2.82092e-06 
605.746 2.82888e-06 
606.276 2.83566e-06 
606.807 2.83883e-06 
607.337 2.83635e-06 
607.867 2.82775e-06 
608.397 2.81446e-06 
608.928 2.79885e-06 
609.458 2.78305e-06 
609.988 2.76837e-06 
610.519 2.75533e-06 
611.049 2.74398e-06 
611.579 2.73414e-06 
612.109 2.72558e-06 
612.64 2.71805e-06 
613.17 2.71136e-06 
613.7 2.70535e-06 
614.23 2.69992e-06 
614.761 2.69497e-06 
615.291 2.69045e-06 
615.821 2.68634e-06 
616.352 2.68263e-06 
616.882 2.67934e-06 
617.412 2.67648e-06 
617.942 2.67405e-06 
618.473 2.67198e-06 
619.003 2.67009e-06 
619.533 2.66796e-06 
620.063 2.66505e-06 
620.594 2.66083e-06 
621.124 2.65515e-06 
621.654 2.64831e-06 
622.185 2.64085e-06 
622.715 2.63325e-06 
623.245 2.62581e-06 
623.775 2.61864e-06 
624.306 2.61176e-06 
624.836 2.6051e-06 
625.366 2.59862e-06 
625.896 2.59226e-06 
626.427 2.58597e-06 
626.957 2.57971e-06 
627.487 2.57346e-06 
628.018 2.56718e-06 
628.548 2.56087e-06 
629.078 2.55451e-06 
629.608 2.54811e-06 
630.139 2.54165e-06 
630.669 2.53515e-06 
631.199 2.52861e-06 
631.729 2.52206e-06 
632.26 2.51549e-06 
632.79 2.50896e-06 
633.32 2.50248e-06 
633.851 2.49613e-06 
634.381 2.48995e-06 
634.911 2.48405e-06 
635.441 2.47854e-06 
635.972 2.47362e-06 
636.502 2.46954e-06 
637.032 2.4667e-06 
637.562 2.46572e-06 
638.093 2.46763e-06 
638.623 2.47426e-06 
639.153 2.48909e-06 
639.684 2.51945e-06 
640.214 2.58256e-06 
640.744 2.72435e-06 
641.274 3.06481e-06 
641.805 3.58426e-06 
642.335 3.41453e-06 
642.865 2.95071e-06 
643.396 2.68021e-06 
643.926 2.56692e-06 
644.456 2.51975e-06 
644.986 2.50275e-06 
645.517 2.50177e-06 
646.047 2.50947e-06 
646.577 2.52004e-06 
647.107 2.52756e-06 
647.638 2.52684e-06 
648.168 2.51537e-06 
648.698 2.4942e-06 
649.229 2.46694e-06 
649.759 2.43769e-06 
650.289 2.40966e-06 
650.819 2.38459e-06 
651.35 2.36309e-06 
651.88 2.34505e-06 
652.41 2.33009e-06 
652.94 2.31777e-06 
653.471 2.30768e-06 
654.001 2.29951e-06 
654.531 2.29306e-06 
655.062 2.2882e-06 
655.592 2.2849e-06 
656.122 2.28322e-06 
656.652 2.28326e-06 
657.183 2.28521e-06 
657.713 2.28919e-06 
658.243 2.29522e-06 
658.773 2.30287e-06 
659.304 2.31103e-06 
659.834 2.3177e-06 
660.364 2.32046e-06 
660.895 2.31748e-06 
661.425 2.30856e-06 
661.955 2.29515e-06 
662.485 2.27944e-06 
663.016 2.26346e-06 
663.546 2.24852e-06 
664.076 2.23521e-06 
664.606 2.22365e-06 
665.137 2.21368e-06 
665.667 2.20506e-06 
666.197 2.19753e-06 
666.728 2.19089e-06 
667.258 2.18494e-06 
667.788 2.17955e-06 
668.318 2.1746e-06 
668.849 2.17001e-06 
669.379 2.16569e-06 
669.909 2.1616e-06 
670.439 2.15769e-06 
670.97 2.15393e-06 
671.5 2.15028e-06 
672.03 2.14672e-06 
672.561 2.14323e-06 
673.091 2.1398e-06 
673.621 2.13641e-06 
674.151 2.13305e-06 
674.682 2.12971e-06 
675.212 2.12637e-06 
675.742 2.12304e-06 
676.272 2.11971e-06 
676.803 2.11637e-06 
677.333 2.11301e-06 
677.863 2.10964e-06 
678.394 2.10624e-06 
678.924 2.10281e-06 
679.454 2.09936e-06 
679.984 2.09587e-06 
680.515 2.09234e-06 
681.045 2.08878e-06 
681.575 2.08518e-06 
682.105 2.08155e-06 
682.636 2.07787e-06 
683.166 2.07416e-06 
683.696 2.0704e-06 
684.227 2.06661e-06 
684.757 2.06279e-06 
685.287 2.05894e-06 
685.817 2.05507e-06 
686.348 2.05117e-06 
686.878 2.04727e-06 
687.408 2.04336e-06 
687.938 2.03946e-06 
688.469 2.03558e-06 
688.999 2.03175e-06 
689.529 2.02798e-06 
690.06 2.02429e-06 
690.59 2.02073e-06 
691.12 2.01734e-06 
691.65 2.01415e-06 
692.181 2.01123e-06 
692.711 2.00867e-06 
693.241 2.00655e-06 
693.771 2.00501e-06 
694.302 2.00419e-06 
694.832 2.00431e-06 
695.362 2.00561e-06 
695.893 2.00843e-06 
696.423 2.01317e-06 
696.953 2.02034e-06 
697.483 2.03049e-06 
698.014 2.04418e-06 
698.544 2.06172e-06 
699.074 2.08278e-06 
699.604 2.10574e-06 
700.135 2.12712e-06 
700.665 2.14188e-06 
701.195 2.14526e-06 
701.726 2.13516e-06 
702.256 2.11326e-06 
702.786 2.08386e-06 
703.316 2.0518e-06 
703.847 2.02079e-06 
704.377 1.99293e-06 
704.907 1.96893e-06 
705.438 1.94874e-06 
705.968 1.93194e-06 
706.498 1.91803e-06 
707.028 1.90659e-06 
707.559 1.89727e-06 
708.089 1.88986e-06 
708.619 1.88421e-06 
709.149 1.88031e-06 
709.68 1.87823e-06 
710.21 1.8781e-06 
710.74 1.88012e-06 
711.271 1.88444e-06 
711.801 1.89102e-06 
712.331 1.89932e-06 
712.861 1.90797e-06 
713.392 1.91464e-06 
713.922 1.91661e-06 
714.452 1.91199e-06 
714.982 1.90079e-06 
715.513 1.88475e-06 
716.043 1.86638e-06 
716.573 1.84789e-06 
717.104 1.83069e-06 
717.634 1.81538e-06 
718.164 1.80205e-06 
718.694 1.79051e-06 
719.225 1.78051e-06 
719.755 1.77177e-06 
720.285 1.76405e-06 
720.815 1.75718e-06 
721.346 1.75102e-06 
721.876 1.74545e-06 
722.406 1.74041e-06 
722.937 1.73586e-06 
723.467 1.73177e-06 
723.997 1.72815e-06 
724.527 1.72503e-06 
725.058 1.72246e-06 
725.588 1.72054e-06 
726.118 1.71936e-06 
726.648 1.71904e-06 
727.179 1.71967e-06 
727.709 1.72124e-06 
728.239 1.72349e-06 
728.77 1.72576e-06 
729.3 1.72689e-06 
729.83 1.72556e-06 
730.36 1.72091e-06 
730.891 1.71316e-06 
731.421 1.70342e-06 
731.951 1.69297e-06 
732.481 1.68279e-06 
733.012 1.67336e-06 
733.542 1.66482e-06 
734.072 1.65712e-06 
734.603 1.65012e-06 
735.133 1.6437e-06 
735.663 1.63773e-06 
736.193 1.6321e-06 
736.724 1.62673e-06 
737.254 1.62156e-06 
737.784 1.61652e-06 
738.314 1.61159e-06 
738.845 1.60671e-06 
739.375 1.60187e-06 
739.905 1.59703e-06 
740.436 1.59219e-06 
740.966 1.58731e-06 
741.496 1.58239e-06 
742.026 1.5774e-06 
742.557 1.57235e-06 
743.087 1.5672e-06 
743.617 1.56196e-06 
744.147 1.55661e-06 
744.678 1.55114e-06 
745.208 1.54554e-06 
745.738 1.5398e-06 
746.269 1.53391e-06 
746.799 1.52786e-06 
747.329 1.52165e-06 
747.859 1.51526e-06 
748.39 1.50868e-06 
748.92 1.50191e-06 
749.45 1.49493e-06 
749.98 1.48775e-06 
750.511 1.48035e-06 
751.041 1.47272e-06 
751.571 1.46486e-06 
752.102 1.45677e-06 
752.632 1.44844e-06 
753.162 1.43986e-06 
753.692 1.43103e-06 
754.223 1.42197e-06 
754.753 1.41267e-06 
755.283 1.40314e-06 
755.813 1.39338e-06 
756.344 1.38342e-06 
756.874 1.37328e-06 
757.404 1.36298e-06 
757.935 1.35258e-06 
758.465 1.34213e-06 
758.995 1.33172e-06 
759.525 1.32146e-06 
760.056 1.31152e-06 
760.586 1.30214e-06 
761.116 1.29368e-06 
761.646 1.28669e-06 
762.177 1.28206e-06 
762.707 1.28126e-06 
763.237 1.28693e-06 
763.768 1.30408e-06 
764.298 1.34322e-06 
764.828 1.42887e-06 
765.358 1.62576e-06 
765.889 2.10558e-06 
766.419 2.9124e-06 
766.949 2.85101e-06 
767.479 2.11111e-06 
768.01 1.58324e-06 
768.54 1.34463e-06 
769.07 1.22653e-06 
769.601 1.15848e-06 
770.131 1.11401e-06 
770.661 1.08201e-06 
771.191 1.05731e-06 
771.722 1.03733e-06 
772.252 1.02072e-06 
772.782 1.00685e-06 
773.312 9.95563e-07 
773.843 9.87035e-07 
774.373 9.81837e-07 
774.903 9.81071e-07 
775.434 9.86661e-07 
775.964 1.00196e-06 
776.494 1.03314e-06 
777.024 1.09232e-06 
777.555 1.20563e-06 
778.085 1.43646e-06 
778.615 1.95663e-06 
779.146 3.17059e-06 
779.676 4.52908e-06 
780.206 3.84864e-06 
780.736 2.41102e-06 
781.267 1.61415e-06 
781.797 1.2683e-06 
782.327 1.10231e-06 
782.857 1.01204e-06 
783.388 9.5604e-07 
783.918 9.15974e-07 
784.448 8.83824e-07 
784.979 8.56623e-07 
785.509 8.33518e-07 
786.039 8.14179e-07 
786.569 7.98222e-07 
787.1 7.85159e-07 
787.63 7.74476e-07 
788.16 7.65709e-07 
788.69 7.58468e-07 
789.221 7.52439e-07 
789.751 7.47377e-07 
790.281 7.43091e-07 
790.812 7.39431e-07 
791.342 7.3628e-07 
791.872 7.33547e-07 
792.402 7.31162e-07 
792.933 7.29065e-07 
793.463 7.27212e-07 
793.993 7.25563e-07 
794.523 7.2409e-07 
795.054 7.22767e-07 
795.584 7.21573e-07 
796.114 7.20491e-07 
796.645 7.19507e-07 
797.175 7.18607e-07 
797.705 7.17782e-07 
798.235 7.17022e-07 
798.766 7.16321e-07 
799.296 7.15671e-07 
799.826 7.15066e-07 
800.356 7.14502e-07 
800.887 7.13974e-07 
801.417 7.13478e-07 
801.947 7.1301e-07 
802.478 7.12568e-07 
803.008 7.12148e-07 
803.538 7.11749e-07 
804.068 7.11367e-07 
804.599 7.11002e-07 
805.129 7.10649e-07 
805.659 7.10309e-07 
806.189 7.0998e-07 
806.72 7.09659e-07 
807.25 7.09346e-07 
807.78 7.0904e-07 
808.311 7.08738e-07 
808.841 7.08441e-07 
809.371 7.08146e-07 
809.901 7.07854e-07 
810.432 7.07562e-07 
810.962 7.0727e-07 
811.492 7.06978e-07 
812.022 7.06684e-07 
812.553 7.06389e-07 
813.083 7.0609e-07 
813.613 7.05789e-07 
814.144 7.05483e-07 
814.674 7.05173e-07 
815.204 7.04858e-07 
815.734 7.04538e-07 
816.265 7.04213e-07 
816.795 7.03882e-07 
817.325 7.03546e-07 
817.855 7.03204e-07 
818.386 7.02858e-07 
818.916 7.02506e-07 
819.446 7.02152e-07 
819.977 7.01793e-07 
820.507 7.01433e-07 
821.037 7.01072e-07 
821.567 7.00711e-07 
822.098 7.00354e-07 
822.628 7.00003e-07 
823.158 6.99659e-07 
823.688 6.99328e-07 
824.219 6.99014e-07 
824.749 6.98723e-07 
825.279 6.9846e-07 
825.81 6.98236e-07 
826.34 6.98059e-07 
826.87 6.97942e-07 
827.4 6.979e-07 
827.931 6.97951e-07 
828.461 6.9812e-07 
828.991 6.98437e-07 
829.521 6.98938e-07 
830.052 6.99672e-07 
830.582 7.00699e-07 
831.112 7.02097e-07 
831.643 7.03967e-07 
832.173 7.06433e-07 
832.703 7.09649e-07 
833.233 7.13793e-07 
833.764 7.19044e-07 
834.294 7.25526e-07 
834.824 7.33181e-07 
835.354 7.41564e-07 
835.885 7.49619e-07 
836.415 7.55676e-07 
836.945 7.57987e-07 
837.476 7.5569e-07 
838.006 7.49384e-07 
838.536 7.40716e-07 
839.066 7.31425e-07 
839.597 7.22703e-07 
840.127 7.15104e-07 
840.657 7.08748e-07 
841.188 7.03538e-07 
841.718 6.99304e-07 
842.248 6.95865e-07 
842.778 6.93063e-07 
843.309 6.90768e-07 
843.839 6.88878e-07 
844.369 6.87309e-07 
844.899 6.85999e-07 
845.43 6.84898e-07 
845.96 6.83968e-07 
846.49 6.83178e-07 
847.021 6.82503e-07 
847.551 6.81924e-07 
848.081 6.81426e-07 
848.611 6.80996e-07 
849.142 6.80624e-07 
849.672 6.803e-07 
850.202 6.80019e-07 
850.732 6.79774e-07 
851.263 6.79561e-07 
851.793 6.79375e-07 
852.323 6.79213e-07 
852.854 6.79072e-07 
853.384 6.7895e-07 
853.914 6.78843e-07 
854.444 6.78752e-07 
854.975 6.78672e-07 
855.505 6.78605e-07 
856.035 6.78547e-07 
856.565 6.78499e-07 
857.096 6.78458e-07 
857.626 6.78425e-07 
858.156 6.78399e-07 
858.687 6.78378e-07 
859.217 6.78363e-07 
859.747 6.78352e-07 
860.277 6.78345e-07 
860.808 6.78343e-07 
861.338 6.78344e-07 
861.868 6.78348e-07 
862.398 6.78355e-07 
862.929 6.78365e-07 
863.459 6.78377e-07 
863.989 6.7839e-07 
864.52 6.78406e-07 
865.05 6.78423e-07 
865.58 6.78442e-07 
866.11 6.78462e-07 
866.641 6.78483e-07 
867.171 6.78506e-07 
867.701 6.78529e-07 
868.231 6.78554e-07 
868.762 6.78578e-07 
869.292 6.78603e-07 
869.822 6.78629e-07 
870.353 6.78655e-07 
870.883 6.78682e-07 
871.413 6.78709e-07 
871.943 6.78737e-07 
872.474 6.78764e-07 
873.004 6.78792e-07 
873.534 6.7882e-07 
874.064 6.78847e-07 
874.595 6.78874e-07 
875.125 6.78902e-07 
875.655 6.7893e-07 
876.186 6.78958e-07 
876.716 6.78985e-07 
877.246 6.79013e-07 
877.776 6.7904e-07 
878.307 6.79067e-07 
878.837 6.79094e-07 
879.367 6.79121e-07 
879.897 6.79147e-07 
880.428 6.79173e-07 
880.958 6.792e-07 
881.488 6.79227e-07 
882.019 6.79252e-07 
882.549 6.79278e-07 
883.079 6.79304e-07 
883.609 6.79329e-07 
884.14 6.79353e-07 
884.67 6.79378e-07 
885.2 6.79403e-07 
885.73 6.79427e-07 
886.261 6.7945e-07 
886.791 6.79474e-07 
887.321 6.79497e-07 
887.852 6.79519e-07 
888.382 6.79541e-07 
888.912 6.79563e-07 
889.442 6.79584e-07 
889.973 6.79604e-07 
890.503 6.79623e-07 
891.033 6.79642e-07 
891.563 6.79659e-07 
892.094 6.79676e-07 
892.624 6.79691e-07 
893.154 6.79704e-07 
893.685 6.79715e-07 
894.215 6.79725e-07 
894.745 6.79732e-07 
895.275 6.79737e-07 
895.806 6.79737e-07 
896.336 6.79736e-07 
896.866 6.79731e-07 
897.396 6.79721e-07 
897.927 6.79707e-07 
898.457 6.79687e-07 
898.987 6.79661e-07 
899.518 6.79629e-07 
900.048 6.79589e-07 
900.578 6.79541e-07 
901.108 6.79484e-07 
901.639 6.79418e-07 
902.169 6.79339e-07 
902.699 6.79249e-07 
903.229 6.79145e-07 
903.76 6.79027e-07 
904.29 6.78892e-07 
904.82 6.78739e-07 
905.351 6.78567e-07 
905.881 6.78374e-07 
906.411 6.78157e-07 
906.941 6.77915e-07 
907.472 6.77646e-07 
908.002 6.77347e-07 
908.532 6.77016e-07 
