#energy geo_1 
400 3.44887e-06 
400.53 3.4499e-06 
401.061 3.45092e-06 
401.591 3.45195e-06 
402.121 3.45297e-06 
402.651 3.45399e-06 
403.182 3.45501e-06 
403.712 3.45603e-06 
404.242 3.45705e-06 
404.772 3.45807e-06 
405.303 3.45908e-06 
405.833 3.4601e-06 
406.363 3.46111e-06 
406.894 3.46212e-06 
407.424 3.46313e-06 
407.954 3.46414e-06 
408.484 3.46514e-06 
409.015 3.46615e-06 
409.545 3.46715e-06 
410.075 3.46815e-06 
410.605 3.46915e-06 
411.136 3.47015e-06 
411.666 3.47115e-06 
412.196 3.47214e-06 
412.727 3.47313e-06 
413.257 3.47413e-06 
413.787 3.47512e-06 
414.317 3.4761e-06 
414.848 3.47709e-06 
415.378 3.47807e-06 
415.908 3.47906e-06 
416.438 3.48004e-06 
416.969 3.48101e-06 
417.499 3.48199e-06 
418.029 3.48297e-06 
418.56 3.48394e-06 
419.09 3.48491e-06 
419.62 3.48588e-06 
420.15 3.48685e-06 
420.681 3.48781e-06 
421.211 3.48877e-06 
421.741 3.48974e-06 
422.271 3.49069e-06 
422.802 3.49165e-06 
423.332 3.49261e-06 
423.862 3.49356e-06 
424.393 3.49451e-06 
424.923 3.49546e-06 
425.453 3.4964e-06 
425.983 3.49735e-06 
426.514 3.49829e-06 
427.044 3.49923e-06 
427.574 3.50017e-06 
428.104 3.5011e-06 
428.635 3.50203e-06 
429.165 3.50296e-06 
429.695 3.50389e-06 
430.226 3.50481e-06 
430.756 3.50573e-06 
431.286 3.50665e-06 
431.816 3.50757e-06 
432.347 3.50848e-06 
432.877 3.50939e-06 
433.407 3.5103e-06 
433.938 3.5112e-06 
434.468 3.51211e-06 
434.998 3.513e-06 
435.528 3.5139e-06 
436.059 3.51479e-06 
436.589 3.51568e-06 
437.119 3.51656e-06 
437.649 3.51744e-06 
438.18 3.51832e-06 
438.71 3.5192e-06 
439.24 3.52006e-06 
439.771 3.52093e-06 
440.301 3.52179e-06 
440.831 3.52265e-06 
441.361 3.5235e-06 
441.892 3.52435e-06 
442.422 3.52519e-06 
442.952 3.52603e-06 
443.482 3.52686e-06 
444.013 3.52769e-06 
444.543 3.52851e-06 
445.073 3.52932e-06 
445.604 3.53013e-06 
446.134 3.53094e-06 
446.664 3.53174e-06 
447.194 3.53253e-06 
447.725 3.53331e-06 
448.255 3.53409e-06 
448.785 3.53486e-06 
449.315 3.53562e-06 
449.846 3.53637e-06 
450.376 3.53712e-06 
450.906 3.53786e-06 
451.437 3.53859e-06 
451.967 3.53932e-06 
452.497 3.54003e-06 
453.027 3.54073e-06 
453.558 3.54143e-06 
454.088 3.54212e-06 
454.618 3.5428e-06 
455.148 3.54347e-06 
455.679 3.54413e-06 
456.209 3.54478e-06 
456.739 3.54543e-06 
457.27 3.54607e-06 
457.8 3.5467e-06 
458.33 3.54732e-06 
458.86 3.54794e-06 
459.391 3.54855e-06 
459.921 3.54915e-06 
460.451 3.54976e-06 
460.981 3.55036e-06 
461.512 3.55097e-06 
462.042 3.55157e-06 
462.572 3.55219e-06 
463.103 3.55281e-06 
463.633 3.55345e-06 
464.163 3.55411e-06 
464.693 3.55479e-06 
465.224 3.55551e-06 
465.754 3.55627e-06 
466.284 3.55708e-06 
466.814 3.55797e-06 
467.345 3.55894e-06 
467.875 3.56002e-06 
468.405 3.56124e-06 
468.936 3.56263e-06 
469.466 3.56424e-06 
469.996 3.56612e-06 
470.526 3.56834e-06 
471.057 3.57101e-06 
471.587 3.57423e-06 
472.117 3.57817e-06 
472.647 3.583e-06 
473.178 3.58895e-06 
473.708 3.59626e-06 
474.238 3.60508e-06 
474.769 3.61541e-06 
475.299 3.62678e-06 
475.829 3.63795e-06 
476.359 3.64683e-06 
476.89 3.65104e-06 
477.42 3.64925e-06 
477.95 3.64206e-06 
478.48 3.63159e-06 
479.011 3.62016e-06 
479.541 3.60938e-06 
480.071 3.59998e-06 
480.602 3.59216e-06 
481.132 3.5858e-06 
481.662 3.58068e-06 
482.192 3.57659e-06 
482.723 3.57333e-06 
483.253 3.57075e-06 
483.783 3.56872e-06 
484.313 3.56717e-06 
484.844 3.56601e-06 
485.374 3.56522e-06 
485.904 3.56477e-06 
486.435 3.56464e-06 
486.965 3.56485e-06 
487.495 3.56542e-06 
488.025 3.5664e-06 
488.556 3.56784e-06 
489.086 3.56982e-06 
489.616 3.57247e-06 
490.146 3.57593e-06 
490.677 3.58039e-06 
491.207 3.58612e-06 
491.737 3.59343e-06 
492.268 3.60273e-06 
492.798 3.61447e-06 
493.328 3.62911e-06 
493.858 3.64696e-06 
494.389 3.66782e-06 
494.919 3.6904e-06 
495.449 3.71175e-06 
495.979 3.72728e-06 
496.51 3.73234e-06 
497.04 3.72499e-06 
497.57 3.7074e-06 
498.101 3.68423e-06 
498.631 3.66001e-06 
499.161 3.63761e-06 
499.691 3.61824e-06 
500.222 3.60212e-06 
500.752 3.58892e-06 
501.282 3.57822e-06 
501.812 3.56956e-06 
502.343 3.56256e-06 
502.873 3.55692e-06 
503.403 3.55241e-06 
503.934 3.54886e-06 
504.464 3.54615e-06 
504.994 3.5442e-06 
505.524 3.54298e-06 
506.055 3.54246e-06 
506.585 3.54269e-06 
507.115 3.54372e-06 
507.646 3.54563e-06 
508.176 3.54857e-06 
508.706 3.55273e-06 
509.236 3.55835e-06 
509.767 3.56576e-06 
510.297 3.5754e-06 
510.827 3.58781e-06 
511.357 3.6037e-06 
511.888 3.62392e-06 
512.418 3.64943e-06 
512.948 3.68114e-06 
513.479 3.71951e-06 
514.009 3.76373e-06 
514.539 3.81047e-06 
515.069 3.85278e-06 
515.6 3.88077e-06 
516.13 3.88572e-06 
516.66 3.86553e-06 
517.19 3.82622e-06 
517.721 3.77773e-06 
518.251 3.72871e-06 
518.781 3.6842e-06 
519.312 3.64612e-06 
519.842 3.61453e-06 
520.372 3.5887e-06 
520.902 3.56765e-06 
521.433 3.55047e-06 
521.963 3.53637e-06 
522.493 3.52471e-06 
523.023 3.515e-06 
523.554 3.50684e-06 
524.084 3.49993e-06 
524.614 3.49402e-06 
525.145 3.48893e-06 
525.675 3.48451e-06 
526.205 3.48064e-06 
526.735 3.47723e-06 
527.266 3.47421e-06 
527.796 3.4715e-06 
528.326 3.46906e-06 
528.856 3.46685e-06 
529.387 3.46483e-06 
529.917 3.46297e-06 
530.447 3.46126e-06 
530.978 3.45966e-06 
531.508 3.45817e-06 
532.038 3.45676e-06 
532.568 3.45543e-06 
533.099 3.45416e-06 
533.629 3.45295e-06 
534.159 3.45178e-06 
534.689 3.45066e-06 
535.22 3.44957e-06 
535.75 3.4485e-06 
536.28 3.44747e-06 
536.811 3.44645e-06 
537.341 3.44545e-06 
537.871 3.44447e-06 
538.401 3.4435e-06 
538.932 3.44255e-06 
539.462 3.44161e-06 
539.992 3.44069e-06 
540.522 3.43977e-06 
541.053 3.43888e-06 
541.583 3.43801e-06 
542.113 3.43715e-06 
542.644 3.43633e-06 
543.174 3.43554e-06 
543.704 3.4348e-06 
544.234 3.43412e-06 
544.765 3.4335e-06 
545.295 3.43297e-06 
545.825 3.43256e-06 
546.355 3.43228e-06 
546.886 3.43219e-06 
547.416 3.43232e-06 
547.946 3.43274e-06 
548.477 3.43353e-06 
549.007 3.43478e-06 
549.537 3.43664e-06 
550.067 3.43924e-06 
550.598 3.44274e-06 
551.128 3.44729e-06 
551.658 3.4529e-06 
552.188 3.45934e-06 
552.719 3.46588e-06 
553.249 3.47119e-06 
553.779 3.47363e-06 
554.31 3.47209e-06 
554.84 3.46669e-06 
555.37 3.45873e-06 
555.9 3.44983e-06 
556.431 3.44121e-06 
556.961 3.43351e-06 
557.491 3.42691e-06 
558.021 3.42138e-06 
558.552 3.41678e-06 
559.082 3.41298e-06 
559.612 3.40984e-06 
560.143 3.40726e-06 
560.673 3.40519e-06 
561.203 3.40357e-06 
561.733 3.40241e-06 
562.264 3.40171e-06 
562.794 3.40151e-06 
563.324 3.40187e-06 
563.854 3.40284e-06 
564.385 3.40448e-06 
564.915 3.40671e-06 
565.445 3.40927e-06 
565.976 3.41159e-06 
566.506 3.41282e-06 
567.036 3.41212e-06 
567.566 3.40918e-06 
568.097 3.40441e-06 
568.627 3.39866e-06 
569.157 3.39273e-06 
569.688 3.38714e-06 
570.218 3.38208e-06 
570.748 3.37759e-06 
571.278 3.3736e-06 
571.809 3.37003e-06 
572.339 3.36679e-06 
572.869 3.3638e-06 
573.399 3.36101e-06 
573.93 3.35836e-06 
574.46 3.35582e-06 
574.99 3.35336e-06 
575.521 3.35095e-06 
576.051 3.34859e-06 
576.581 3.34624e-06 
577.111 3.34392e-06 
577.642 3.34161e-06 
578.172 3.3393e-06 
578.702 3.33699e-06 
579.232 3.33469e-06 
579.763 3.3324e-06 
580.293 3.33013e-06 
580.823 3.32787e-06 
581.354 3.32564e-06 
581.884 3.32345e-06 
582.414 3.32133e-06 
582.944 3.31928e-06 
583.475 3.31735e-06 
584.005 3.31556e-06 
584.535 3.31395e-06 
585.065 3.31258e-06 
585.596 3.31151e-06 
586.126 3.31083e-06 
586.656 3.31065e-06 
587.187 3.31111e-06 
587.717 3.31237e-06 
588.247 3.31467e-06 
588.777 3.3183e-06 
589.308 3.32361e-06 
589.838 3.33104e-06 
590.368 3.3411e-06 
590.898 3.35426e-06 
591.429 3.37081e-06 
591.959 3.3904e-06 
592.489 3.4115e-06 
593.02 3.43076e-06 
593.55 3.44328e-06 
594.08 3.4445e-06 
594.61 3.43303e-06 
595.141 3.41157e-06 
595.671 3.38508e-06 
596.201 3.35805e-06 
596.731 3.33328e-06 
597.262 3.31191e-06 
597.792 3.29408e-06 
598.322 3.27948e-06 
598.853 3.26769e-06 
599.383 3.2583e-06 
599.913 3.25101e-06 
600.443 3.24561e-06 
600.974 3.24199e-06 
601.504 3.24016e-06 
602.034 3.24021e-06 
602.564 3.24235e-06 
603.095 3.24687e-06 
603.625 3.25414e-06 
604.155 3.26449e-06 
604.686 3.27804e-06 
605.216 3.29431e-06 
605.746 3.31168e-06 
606.276 3.32696e-06 
606.807 3.33589e-06 
607.337 3.33484e-06 
607.867 3.32299e-06 
608.397 3.30284e-06 
608.928 3.27855e-06 
609.458 3.2539e-06 
609.988 3.23119e-06 
610.519 3.21137e-06 
611.049 3.19452e-06 
611.579 3.18034e-06 
612.109 3.1684e-06 
612.64 3.15831e-06 
613.17 3.1497e-06 
613.7 3.14231e-06 
614.23 3.13594e-06 
614.761 3.13043e-06 
615.291 3.1257e-06 
615.821 3.1217e-06 
616.352 3.11842e-06 
616.882 3.11587e-06 
617.412 3.11409e-06 
617.942 3.11309e-06 
618.473 3.11274e-06 
619.003 3.11271e-06 
619.533 3.11232e-06 
620.063 3.11059e-06 
620.594 3.10666e-06 
621.124 3.10024e-06 
621.654 3.09186e-06 
622.185 3.08244e-06 
622.715 3.07283e-06 
623.245 3.06352e-06 
623.775 3.05473e-06 
624.306 3.04645e-06 
624.836 3.03861e-06 
625.366 3.03111e-06 
625.896 3.02386e-06 
626.427 3.01678e-06 
626.957 3.00979e-06 
627.487 3.00285e-06 
628.018 2.99593e-06 
628.548 2.98899e-06 
629.078 2.98201e-06 
629.608 2.975e-06 
630.139 2.96794e-06 
630.669 2.96085e-06 
631.199 2.95373e-06 
631.729 2.94661e-06 
632.26 2.93953e-06 
632.79 2.93251e-06 
633.32 2.92562e-06 
633.851 2.91895e-06 
634.381 2.91258e-06 
634.911 2.90666e-06 
635.441 2.9014e-06 
635.972 2.89707e-06 
636.502 2.89406e-06 
637.032 2.89299e-06 
637.562 2.89483e-06 
638.093 2.90115e-06 
638.623 2.91476e-06 
639.153 2.94102e-06 
639.684 2.99118e-06 
640.214 3.09169e-06 
640.744 3.31309e-06 
641.274 3.83963e-06 
641.805 4.64105e-06 
642.335 4.38402e-06 
642.865 3.67534e-06 
643.396 3.2637e-06 
643.926 3.09375e-06 
644.456 3.02569e-06 
644.986 3.00438e-06 
645.517 3.00807e-06 
646.047 3.02542e-06 
646.577 3.04715e-06 
647.107 3.0637e-06 
647.638 3.06654e-06 
648.168 3.05136e-06 
648.698 3.01978e-06 
649.229 2.97761e-06 
649.759 2.93176e-06 
650.289 2.88765e-06 
650.819 2.84835e-06 
651.35 2.81492e-06 
651.88 2.78726e-06 
652.41 2.76475e-06 
652.94 2.74663e-06 
653.471 2.73223e-06 
654.001 2.72103e-06 
654.531 2.71266e-06 
655.062 2.70692e-06 
655.592 2.70371e-06 
656.122 2.70312e-06 
656.652 2.70533e-06 
657.183 2.71057e-06 
657.713 2.71908e-06 
658.243 2.73085e-06 
658.773 2.74523e-06 
659.304 2.76047e-06 
659.834 2.77345e-06 
660.364 2.78031e-06 
660.895 2.77813e-06 
661.425 2.76653e-06 
661.955 2.7477e-06 
662.485 2.72512e-06 
663.016 2.70199e-06 
663.546 2.68045e-06 
664.076 2.6615e-06 
664.606 2.64532e-06 
665.137 2.63167e-06 
665.667 2.62018e-06 
666.197 2.61046e-06 
666.728 2.60215e-06 
667.258 2.59497e-06 
667.788 2.58868e-06 
668.318 2.58311e-06 
668.849 2.57811e-06 
669.379 2.57357e-06 
669.909 2.5694e-06 
670.439 2.56552e-06 
670.97 2.56188e-06 
671.5 2.55844e-06 
672.03 2.55515e-06 
672.561 2.55199e-06 
673.091 2.54892e-06 
673.621 2.54593e-06 
674.151 2.543e-06 
674.682 2.5401e-06 
675.212 2.53724e-06 
675.742 2.53439e-06 
676.272 2.53155e-06 
676.803 2.5287e-06 
677.333 2.52584e-06 
677.863 2.52297e-06 
678.394 2.52007e-06 
678.924 2.51714e-06 
679.454 2.51417e-06 
679.984 2.51117e-06 
680.515 2.50812e-06 
681.045 2.50503e-06 
681.575 2.5019e-06 
682.105 2.49872e-06 
682.636 2.49549e-06 
683.166 2.49221e-06 
683.696 2.4889e-06 
684.227 2.48554e-06 
684.757 2.48215e-06 
685.287 2.47873e-06 
685.817 2.47528e-06 
686.348 2.47183e-06 
686.878 2.46838e-06 
687.408 2.46494e-06 
687.938 2.46154e-06 
688.469 2.4582e-06 
688.999 2.45495e-06 
689.529 2.45183e-06 
690.06 2.44887e-06 
690.59 2.44614e-06 
691.12 2.4437e-06 
691.65 2.44162e-06 
692.181 2.44002e-06 
692.711 2.43901e-06 
693.241 2.43877e-06 
693.771 2.43949e-06 
694.302 2.44144e-06 
694.832 2.44494e-06 
695.362 2.45042e-06 
695.893 2.45842e-06 
696.423 2.46963e-06 
696.953 2.48486e-06 
697.483 2.50504e-06 
698.014 2.53106e-06 
698.544 2.56343e-06 
699.074 2.60154e-06 
699.604 2.64262e-06 
700.135 2.68079e-06 
700.665 2.70766e-06 
701.195 2.71538e-06 
701.726 2.70074e-06 
702.256 2.66684e-06 
702.786 2.62103e-06 
703.316 2.57124e-06 
703.847 2.52346e-06 
704.377 2.48095e-06 
704.907 2.44479e-06 
705.438 2.41483e-06 
705.968 2.39036e-06 
706.498 2.37056e-06 
707.028 2.35474e-06 
707.559 2.34232e-06 
708.089 2.33294e-06 
708.619 2.32637e-06 
709.149 2.32256e-06 
709.68 2.32161e-06 
710.21 2.32372e-06 
710.74 2.32917e-06 
711.271 2.33822e-06 
711.801 2.3508e-06 
712.331 2.36612e-06 
712.861 2.38214e-06 
713.392 2.39533e-06 
713.922 2.40148e-06 
714.452 2.39757e-06 
714.982 2.38336e-06 
715.513 2.36138e-06 
716.043 2.33543e-06 
716.573 2.30902e-06 
717.104 2.28445e-06 
717.634 2.26279e-06 
718.164 2.24422e-06 
718.694 2.22849e-06 
719.225 2.21519e-06 
719.755 2.2039e-06 
720.285 2.19425e-06 
720.815 2.18596e-06 
721.346 2.17881e-06 
721.876 2.17261e-06 
722.406 2.16727e-06 
722.937 2.16272e-06 
723.467 2.15892e-06 
723.997 2.15591e-06 
724.527 2.15371e-06 
725.058 2.15244e-06 
725.588 2.15224e-06 
726.118 2.15328e-06 
726.648 2.15575e-06 
727.179 2.15982e-06 
727.709 2.16546e-06 
728.239 2.17224e-06 
728.77 2.17903e-06 
729.3 2.1839e-06 
729.83 2.1846e-06 
730.36 2.17971e-06 
730.891 2.16958e-06 
731.421 2.15607e-06 
731.951 2.14137e-06 
732.481 2.12711e-06 
733.012 2.11411e-06 
733.542 2.10261e-06 
734.072 2.0925e-06 
734.603 2.08359e-06 
735.133 2.07564e-06 
735.663 2.06845e-06 
736.193 2.06184e-06 
736.724 2.05567e-06 
737.254 2.04984e-06 
737.784 2.04424e-06 
738.314 2.03881e-06 
738.845 2.03349e-06 
739.375 2.02823e-06 
739.905 2.02299e-06 
740.436 2.01773e-06 
740.966 2.01244e-06 
741.496 2.00707e-06 
742.026 2.00162e-06 
742.557 1.99604e-06 
743.087 1.99034e-06 
743.617 1.98448e-06 
744.147 1.97844e-06 
744.678 1.97223e-06 
745.208 1.9658e-06 
745.738 1.95916e-06 
746.269 1.95228e-06 
746.799 1.94515e-06 
747.329 1.93776e-06 
747.859 1.93008e-06 
748.39 1.92211e-06 
748.92 1.91383e-06 
749.45 1.90522e-06 
749.98 1.89628e-06 
750.511 1.887e-06 
751.041 1.87736e-06 
751.571 1.86735e-06 
752.102 1.85696e-06 
752.632 1.8462e-06 
753.162 1.83503e-06 
753.692 1.82348e-06 
754.223 1.81154e-06 
754.753 1.79922e-06 
755.283 1.78652e-06 
755.813 1.77346e-06 
756.344 1.76008e-06 
756.874 1.74638e-06 
757.404 1.73245e-06 
757.935 1.71834e-06 
758.465 1.70414e-06 
758.995 1.68999e-06 
759.525 1.67608e-06 
760.056 1.66268e-06 
760.586 1.65016e-06 
761.116 1.6391e-06 
761.646 1.63041e-06 
762.177 1.6255e-06 
762.707 1.62674e-06 
763.237 1.63838e-06 
763.768 1.6685e-06 
764.298 1.73402e-06 
764.828 1.87445e-06 
765.358 2.19412e-06 
765.889 2.96969e-06 
766.419 4.2721e-06 
766.949 4.17473e-06 
767.479 2.98339e-06 
768.01 2.13356e-06 
768.54 1.74988e-06 
769.07 1.5604e-06 
769.601 1.45161e-06 
770.131 1.38087e-06 
770.661 1.33029e-06 
771.191 1.2916e-06 
771.722 1.26067e-06 
772.252 1.2354e-06 
772.782 1.21487e-06 
773.312 1.19891e-06 
773.843 1.188e-06 
774.373 1.18331e-06 
774.903 1.18703e-06 
775.434 1.20288e-06 
775.964 1.2374e-06 
776.494 1.30251e-06 
777.024 1.42168e-06 
777.555 1.64554e-06 
778.085 2.09686e-06 
778.615 3.10859e-06 
779.146 5.46439e-06 
779.676 8.09932e-06 
780.206 6.78082e-06 
780.736 3.9934e-06 
781.267 2.44697e-06 
781.797 1.77414e-06 
782.327 1.44984e-06 
782.857 1.27295e-06 
783.388 1.16385e-06 
783.918 1.08746e-06 
784.448 1.02804e-06 
784.979 9.79218e-07 
785.509 9.38619e-07 
786.039 9.05096e-07 
786.569 8.77664e-07 
787.1 8.5531e-07 
787.63 8.37081e-07 
788.16 8.22145e-07 
788.69 8.09821e-07 
789.221 7.99572e-07 
789.751 7.90974e-07 
790.281 7.83703e-07 
790.812 7.77503e-07 
791.342 7.72176e-07 
791.872 7.67568e-07 
792.402 7.63555e-07 
792.933 7.6004e-07 
793.463 7.56943e-07 
793.993 7.54201e-07 
794.523 7.51762e-07 
795.054 7.49582e-07 
795.584 7.47626e-07 
796.114 7.45864e-07 
796.645 7.44272e-07 
797.175 7.42827e-07 
797.705 7.41513e-07 
798.235 7.40314e-07 
798.766 7.39216e-07 
799.296 7.38208e-07 
799.826 7.3728e-07 
800.356 7.36423e-07 
800.887 7.3563e-07 
801.417 7.34895e-07 
801.947 7.3421e-07 
802.478 7.3357e-07 
803.008 7.32972e-07 
803.538 7.32409e-07 
804.068 7.3188e-07 
804.599 7.31379e-07 
805.129 7.30904e-07 
805.659 7.30451e-07 
806.189 7.30019e-07 
806.72 7.29605e-07 
807.25 7.29205e-07 
807.78 7.28819e-07 
808.311 7.28445e-07 
808.841 7.2808e-07 
809.371 7.27722e-07 
809.901 7.27371e-07 
810.432 7.27024e-07 
810.962 7.2668e-07 
811.492 7.26338e-07 
812.022 7.25996e-07 
812.553 7.25655e-07 
813.083 7.25311e-07 
813.613 7.24966e-07 
814.144 7.24617e-07 
814.674 7.24264e-07 
815.204 7.23907e-07 
815.734 7.23546e-07 
816.265 7.23179e-07 
816.795 7.22807e-07 
817.325 7.2243e-07 
817.855 7.22048e-07 
818.386 7.21661e-07 
818.916 7.2127e-07 
819.446 7.20877e-07 
819.977 7.20484e-07 
820.507 7.20091e-07 
821.037 7.19701e-07 
821.567 7.19316e-07 
822.098 7.18941e-07 
822.628 7.18579e-07 
823.158 7.18235e-07 
823.688 7.17916e-07 
824.219 7.1763e-07 
824.749 7.17385e-07 
825.279 7.17192e-07 
825.81 7.17064e-07 
826.34 7.1702e-07 
826.87 7.17077e-07 
827.4 7.17263e-07 
827.931 7.17606e-07 
828.461 7.18147e-07 
828.991 7.18933e-07 
829.521 7.20027e-07 
830.052 7.21507e-07 
830.582 7.23472e-07 
831.112 7.26052e-07 
831.643 7.2941e-07 
832.173 7.33751e-07 
832.703 7.39331e-07 
833.233 7.46439e-07 
833.764 7.55371e-07 
834.294 7.6633e-07 
834.824 7.79218e-07 
835.354 7.93299e-07 
835.885 8.06828e-07 
836.415 8.17045e-07 
836.945 8.21062e-07 
837.476 8.17456e-07 
838.006 8.07215e-07 
838.536 7.93061e-07 
839.066 7.77867e-07 
839.597 7.636e-07 
840.127 7.51178e-07 
840.657 7.40801e-07 
841.188 7.32313e-07 
841.718 7.25429e-07 
842.248 7.19854e-07 
842.778 7.15329e-07 
843.309 7.11638e-07 
843.839 7.08612e-07 
844.369 7.06117e-07 
844.899 7.04048e-07 
845.43 7.02323e-07 
845.96 7.00879e-07 
846.49 6.99666e-07 
847.021 6.98643e-07 
847.551 6.9778e-07 
848.081 6.97048e-07 
848.611 6.9643e-07 
849.142 6.95907e-07 
849.672 6.95465e-07 
850.202 6.95094e-07 
850.732 6.94782e-07 
851.263 6.94524e-07 
851.793 6.94312e-07 
852.323 6.9414e-07 
852.854 6.94003e-07 
853.384 6.93897e-07 
853.914 6.93819e-07 
854.444 6.93766e-07 
854.975 6.93735e-07 
855.505 6.93723e-07 
856.035 6.93729e-07 
856.565 6.93751e-07 
857.096 6.93788e-07 
857.626 6.93837e-07 
858.156 6.93898e-07 
858.687 6.9397e-07 
859.217 6.94051e-07 
859.747 6.94142e-07 
860.277 6.9424e-07 
860.808 6.94347e-07 
861.338 6.9446e-07 
861.868 6.94579e-07 
862.398 6.94704e-07 
862.929 6.94835e-07 
863.459 6.9497e-07 
863.989 6.9511e-07 
864.52 6.95254e-07 
865.05 6.95402e-07 
865.58 6.95553e-07 
866.11 6.95708e-07 
866.641 6.95866e-07 
867.171 6.96027e-07 
867.701 6.9619e-07 
868.231 6.96356e-07 
868.762 6.96524e-07 
869.292 6.96695e-07 
869.822 6.96867e-07 
870.353 6.97042e-07 
870.883 6.97218e-07 
871.413 6.97395e-07 
871.943 6.97574e-07 
872.474 6.97755e-07 
873.004 6.97937e-07 
873.534 6.9812e-07 
874.064 6.98304e-07 
874.595 6.98489e-07 
875.125 6.98676e-07 
875.655 6.98864e-07 
876.186 6.99052e-07 
876.716 6.99242e-07 
877.246 6.99432e-07 
877.776 6.99623e-07 
878.307 6.99814e-07 
878.837 7.00007e-07 
879.367 7.002e-07 
879.897 7.00393e-07 
880.428 7.00588e-07 
880.958 7.00783e-07 
881.488 7.00979e-07 
882.019 7.01175e-07 
882.549 7.01371e-07 
883.079 7.01568e-07 
883.609 7.01766e-07 
884.14 7.01964e-07 
884.67 7.02162e-07 
885.2 7.02361e-07 
885.73 7.0256e-07 
886.261 7.02759e-07 
886.791 7.02959e-07 
887.321 7.03158e-07 
887.852 7.03357e-07 
888.382 7.03556e-07 
888.912 7.03756e-07 
889.442 7.03955e-07 
889.973 7.04153e-07 
890.503 7.04352e-07 
891.033 7.0455e-07 
891.563 7.04746e-07 
892.094 7.04942e-07 
892.624 7.05137e-07 
893.154 7.0533e-07 
893.685 7.0552e-07 
894.215 7.05709e-07 
894.745 7.05896e-07 
895.275 7.06081e-07 
895.806 7.06261e-07 
896.336 7.06438e-07 
896.866 7.06611e-07 
897.396 7.0678e-07 
897.927 7.06943e-07 
898.457 7.071e-07 
898.987 7.0725e-07 
899.518 7.07393e-07 
900.048 7.07527e-07 
900.578 7.07652e-07 
901.108 7.07767e-07 
901.639 7.0787e-07 
902.169 7.07961e-07 
902.699 7.08037e-07 
903.229 7.08097e-07 
903.76 7.08141e-07 
904.29 7.08166e-07 
904.82 7.08171e-07 
905.351 7.08153e-07 
905.881 7.08111e-07 
906.411 7.08042e-07 
906.941 7.07945e-07 
907.472 7.07816e-07 
908.002 7.07653e-07 
908.532 7.07453e-07 
909.062 7.07214e-07 
909.593 7.06931e-07 
