#energy geo_1 
400 6.32309e-07 
400.53 6.32283e-07 
401.061 6.32258e-07 
401.591 6.32233e-07 
402.121 6.32209e-07 
402.651 6.32184e-07 
403.182 6.32161e-07 
403.712 6.32137e-07 
404.242 6.32115e-07 
404.772 6.32092e-07 
405.303 6.32069e-07 
405.833 6.32047e-07 
406.363 6.32026e-07 
406.894 6.32005e-07 
407.424 6.31984e-07 
407.954 6.31963e-07 
408.484 6.31943e-07 
409.015 6.31924e-07 
409.545 6.31904e-07 
410.075 6.31886e-07 
410.605 6.31868e-07 
411.136 6.3185e-07 
411.666 6.31833e-07 
412.196 6.31816e-07 
412.727 6.31799e-07 
413.257 6.31784e-07 
413.787 6.31768e-07 
414.317 6.31753e-07 
414.848 6.31739e-07 
415.378 6.31726e-07 
415.908 6.31712e-07 
416.438 6.317e-07 
416.969 6.31687e-07 
417.499 6.31676e-07 
418.029 6.31665e-07 
418.56 6.31654e-07 
419.09 6.31644e-07 
419.62 6.31635e-07 
420.15 6.31626e-07 
420.681 6.31618e-07 
421.211 6.3161e-07 
421.741 6.31604e-07 
422.271 6.31597e-07 
422.802 6.31591e-07 
423.332 6.31586e-07 
423.862 6.31582e-07 
424.393 6.31578e-07 
424.923 6.31575e-07 
425.453 6.31572e-07 
425.983 6.3157e-07 
426.514 6.31569e-07 
427.044 6.31568e-07 
427.574 6.31568e-07 
428.104 6.31569e-07 
428.635 6.3157e-07 
429.165 6.31572e-07 
429.695 6.31574e-07 
430.226 6.31577e-07 
430.756 6.31581e-07 
431.286 6.31585e-07 
431.816 6.3159e-07 
432.347 6.31595e-07 
432.877 6.31601e-07 
433.407 6.31607e-07 
433.938 6.31614e-07 
434.468 6.31621e-07 
434.998 6.31628e-07 
435.528 6.31636e-07 
436.059 6.31644e-07 
436.589 6.31652e-07 
437.119 6.31661e-07 
437.649 6.3167e-07 
438.18 6.31679e-07 
438.71 6.31687e-07 
439.24 6.31696e-07 
439.771 6.31705e-07 
440.301 6.31714e-07 
440.831 6.31722e-07 
441.361 6.3173e-07 
441.892 6.31738e-07 
442.422 6.31745e-07 
442.952 6.31752e-07 
443.482 6.31758e-07 
444.013 6.31763e-07 
444.543 6.31768e-07 
445.073 6.31771e-07 
445.604 6.31773e-07 
446.134 6.31774e-07 
446.664 6.31774e-07 
447.194 6.31772e-07 
447.725 6.31769e-07 
448.255 6.31764e-07 
448.785 6.31758e-07 
449.315 6.31749e-07 
449.846 6.31739e-07 
450.376 6.31726e-07 
450.906 6.31711e-07 
451.437 6.31694e-07 
451.967 6.31675e-07 
452.497 6.31653e-07 
453.027 6.31629e-07 
453.558 6.31602e-07 
454.088 6.31573e-07 
454.618 6.31543e-07 
455.148 6.31509e-07 
455.679 6.31475e-07 
456.209 6.31438e-07 
456.739 6.31399e-07 
457.27 6.3136e-07 
457.8 6.3132e-07 
458.33 6.3128e-07 
458.86 6.31241e-07 
459.391 6.31204e-07 
459.921 6.31169e-07 
460.451 6.31138e-07 
460.981 6.31114e-07 
461.512 6.31096e-07 
462.042 6.31089e-07 
462.572 6.31094e-07 
463.103 6.31115e-07 
463.633 6.31155e-07 
464.163 6.3122e-07 
464.693 6.31315e-07 
465.224 6.31447e-07 
465.754 6.31624e-07 
466.284 6.31857e-07 
466.814 6.32159e-07 
467.345 6.32544e-07 
467.875 6.33033e-07 
468.405 6.33651e-07 
468.936 6.34428e-07 
469.466 6.35403e-07 
469.996 6.36627e-07 
470.526 6.38163e-07 
471.057 6.40094e-07 
471.587 6.42525e-07 
472.117 6.45589e-07 
472.647 6.49451e-07 
473.178 6.54305e-07 
473.708 6.60353e-07 
474.238 6.6775e-07 
474.769 6.76478e-07 
475.299 6.86123e-07 
475.829 6.95598e-07 
476.359 7.03062e-07 
476.89 7.06425e-07 
477.42 7.04497e-07 
477.95 6.97819e-07 
478.48 6.88262e-07 
479.011 6.77866e-07 
479.541 6.68039e-07 
480.071 6.59445e-07 
480.602 6.5224e-07 
481.132 6.46326e-07 
481.662 6.41519e-07 
482.192 6.37623e-07 
482.723 6.3447e-07 
483.253 6.31921e-07 
483.783 6.2987e-07 
484.313 6.2824e-07 
484.844 6.26973e-07 
485.374 6.26032e-07 
485.904 6.25395e-07 
486.435 6.25055e-07 
486.965 6.25019e-07 
487.495 6.25306e-07 
488.025 6.25951e-07 
488.556 6.27006e-07 
489.086 6.28542e-07 
489.616 6.30656e-07 
490.146 6.33477e-07 
490.677 6.37174e-07 
491.207 6.41963e-07 
491.737 6.48122e-07 
492.268 6.55992e-07 
492.798 6.65967e-07 
493.328 6.78441e-07 
493.858 6.93672e-07 
494.389 7.11485e-07 
494.919 7.30784e-07 
495.449 7.49032e-07 
495.979 7.62283e-07 
496.51 7.66558e-07 
497.04 7.60197e-07 
497.57 7.45044e-07 
498.101 7.25114e-07 
498.631 7.04283e-07 
499.161 6.85014e-07 
499.691 6.68362e-07 
500.222 6.54488e-07 
500.752 6.43141e-07 
501.282 6.33936e-07 
501.812 6.26492e-07 
502.343 6.20485e-07 
502.873 6.15654e-07 
503.403 6.11802e-07 
503.934 6.08781e-07 
504.464 6.06489e-07 
504.994 6.0486e-07 
505.524 6.03858e-07 
506.055 6.03478e-07 
506.585 6.03738e-07 
507.115 6.04689e-07 
507.646 6.06408e-07 
508.176 6.0901e-07 
508.706 6.12653e-07 
509.236 6.17548e-07 
509.767 6.23974e-07 
510.297 6.32296e-07 
510.827 6.42983e-07 
511.357 6.56627e-07 
511.888 6.7395e-07 
512.418 6.95768e-07 
512.948 7.22848e-07 
513.479 7.55578e-07 
514.009 7.93267e-07 
514.539 8.3309e-07 
515.069 8.69144e-07 
515.6 8.93038e-07 
516.13 8.97356e-07 
516.66 8.8032e-07 
517.19 8.47046e-07 
517.721 8.05977e-07 
518.251 7.64442e-07 
518.781 7.26728e-07 
519.312 6.94467e-07 
519.842 6.67718e-07 
520.372 6.45852e-07 
520.902 6.28052e-07 
521.433 6.13538e-07 
521.963 6.01644e-07 
522.493 5.91832e-07 
523.023 5.83677e-07 
523.554 5.76848e-07 
524.084 5.71084e-07 
524.614 5.66184e-07 
525.145 5.61989e-07 
525.675 5.58374e-07 
526.205 5.55239e-07 
526.735 5.52504e-07 
527.266 5.50106e-07 
527.796 5.47993e-07 
528.326 5.46121e-07 
528.856 5.44456e-07 
529.387 5.4297e-07 
529.917 5.41637e-07 
530.447 5.40438e-07 
530.978 5.39356e-07 
531.508 5.38377e-07 
532.038 5.37487e-07 
532.568 5.36678e-07 
533.099 5.35939e-07 
533.629 5.35263e-07 
534.159 5.34644e-07 
534.689 5.34075e-07 
535.22 5.33551e-07 
535.75 5.33069e-07 
536.28 5.32623e-07 
536.811 5.32211e-07 
537.341 5.31829e-07 
537.871 5.31476e-07 
538.401 5.31147e-07 
538.932 5.30841e-07 
539.462 5.30557e-07 
539.992 5.30292e-07 
540.522 5.30046e-07 
541.053 5.29816e-07 
541.583 5.29601e-07 
542.113 5.294e-07 
542.644 5.29212e-07 
543.174 5.29037e-07 
543.704 5.28873e-07 
544.234 5.28719e-07 
544.765 5.28575e-07 
545.295 5.2844e-07 
545.825 5.28314e-07 
546.355 5.28196e-07 
546.886 5.28085e-07 
547.416 5.27981e-07 
547.946 5.27884e-07 
548.477 5.27793e-07 
549.007 5.27708e-07 
549.537 5.27628e-07 
550.067 5.27553e-07 
550.598 5.27484e-07 
551.128 5.27418e-07 
551.658 5.27358e-07 
552.188 5.27301e-07 
552.719 5.27248e-07 
553.249 5.27199e-07 
553.779 5.27153e-07 
554.31 5.27111e-07 
554.84 5.27072e-07 
555.37 5.27036e-07 
555.9 5.27002e-07 
556.431 5.26971e-07 
556.961 5.26943e-07 
557.491 5.26918e-07 
558.021 5.26894e-07 
558.552 5.26873e-07 
559.082 5.26854e-07 
559.612 5.26837e-07 
560.143 5.26821e-07 
560.673 5.26808e-07 
561.203 5.26796e-07 
561.733 5.26786e-07 
562.264 5.26778e-07 
562.794 5.26771e-07 
563.324 5.26766e-07 
563.854 5.26762e-07 
564.385 5.26759e-07 
564.915 5.26758e-07 
565.445 5.26758e-07 
565.976 5.26759e-07 
566.506 5.26761e-07 
567.036 5.26764e-07 
567.566 5.26768e-07 
568.097 5.26773e-07 
568.627 5.2678e-07 
569.157 5.26787e-07 
569.688 5.26795e-07 
570.218 5.26803e-07 
570.748 5.26813e-07 
571.278 5.26823e-07 
571.809 5.26834e-07 
572.339 5.26846e-07 
572.869 5.26858e-07 
573.399 5.26871e-07 
573.93 5.26885e-07 
574.46 5.26899e-07 
574.99 5.26914e-07 
575.521 5.2693e-07 
576.051 5.26946e-07 
576.581 5.26962e-07 
577.111 5.2698e-07 
577.642 5.26997e-07 
578.172 5.27015e-07 
578.702 5.27033e-07 
579.232 5.27052e-07 
579.763 5.27071e-07 
580.293 5.2709e-07 
580.823 5.2711e-07 
581.354 5.2713e-07 
581.884 5.27151e-07 
582.414 5.27172e-07 
582.944 5.27193e-07 
583.475 5.27215e-07 
584.005 5.27236e-07 
584.535 5.27258e-07 
585.065 5.27281e-07 
585.596 5.27303e-07 
586.126 5.27326e-07 
586.656 5.27349e-07 
587.187 5.27372e-07 
587.717 5.27396e-07 
588.247 5.27419e-07 
588.777 5.27443e-07 
589.308 5.27467e-07 
589.838 5.27491e-07 
590.368 5.27515e-07 
590.898 5.2754e-07 
591.429 5.27564e-07 
591.959 5.27589e-07 
592.489 5.27614e-07 
593.02 5.27638e-07 
593.55 5.27663e-07 
594.08 5.27688e-07 
594.61 5.27714e-07 
595.141 5.27739e-07 
595.671 5.27764e-07 
596.201 5.2779e-07 
596.731 5.27815e-07 
597.262 5.2784e-07 
597.792 5.27866e-07 
598.322 5.27891e-07 
598.853 5.27917e-07 
599.383 5.27943e-07 
599.913 5.27968e-07 
600.443 5.27994e-07 
600.974 5.2802e-07 
601.504 5.28046e-07 
602.034 5.28071e-07 
602.564 5.28097e-07 
603.095 5.28123e-07 
603.625 5.28149e-07 
604.155 5.28174e-07 
604.686 5.282e-07 
605.216 5.28226e-07 
605.746 5.28251e-07 
606.276 5.28277e-07 
606.807 5.28303e-07 
607.337 5.28328e-07 
607.867 5.28354e-07 
608.397 5.28379e-07 
608.928 5.28404e-07 
609.458 5.2843e-07 
609.988 5.28455e-07 
610.519 5.2848e-07 
611.049 5.28505e-07 
611.579 5.2853e-07 
612.109 5.28555e-07 
612.64 5.2858e-07 
613.17 5.28605e-07 
613.7 5.2863e-07 
614.23 5.28654e-07 
614.761 5.28679e-07 
615.291 5.28703e-07 
615.821 5.28728e-07 
616.352 5.28752e-07 
616.882 5.28776e-07 
617.412 5.288e-07 
617.942 5.28824e-07 
618.473 5.28848e-07 
619.003 5.28872e-07 
619.533 5.28895e-07 
620.063 5.28919e-07 
620.594 5.28942e-07 
621.124 5.28965e-07 
621.654 5.28988e-07 
622.185 5.29011e-07 
622.715 5.29034e-07 
623.245 5.29057e-07 
623.775 5.29079e-07 
624.306 5.29102e-07 
624.836 5.29124e-07 
625.366 5.29146e-07 
625.896 5.29168e-07 
626.427 5.29189e-07 
626.957 5.29211e-07 
627.487 5.29232e-07 
628.018 5.29253e-07 
628.548 5.29275e-07 
629.078 5.29296e-07 
629.608 5.29316e-07 
630.139 5.29337e-07 
630.669 5.29357e-07 
631.199 5.29378e-07 
631.729 5.29398e-07 
632.26 5.29418e-07 
632.79 5.29437e-07 
633.32 5.29457e-07 
633.851 5.29476e-07 
634.381 5.29495e-07 
634.911 5.29514e-07 
635.441 5.29532e-07 
635.972 5.29551e-07 
636.502 5.29569e-07 
637.032 5.29588e-07 
637.562 5.29606e-07 
638.093 5.29623e-07 
638.623 5.29641e-07 
639.153 5.29658e-07 
639.684 5.29676e-07 
640.214 5.29692e-07 
640.744 5.29709e-07 
641.274 5.29725e-07 
641.805 5.29741e-07 
642.335 5.29758e-07 
642.865 5.29774e-07 
643.396 5.29789e-07 
643.926 5.29805e-07 
644.456 5.2982e-07 
644.986 5.29834e-07 
645.517 5.29849e-07 
646.047 5.29863e-07 
646.577 5.29878e-07 
647.107 5.29892e-07 
647.638 5.29905e-07 
648.168 5.29919e-07 
648.698 5.29932e-07 
649.229 5.29945e-07 
649.759 5.29958e-07 
650.289 5.2997e-07 
650.819 5.29982e-07 
651.35 5.29994e-07 
651.88 5.30006e-07 
652.41 5.30017e-07 
652.94 5.30028e-07 
653.471 5.30039e-07 
654.001 5.3005e-07 
654.531 5.3006e-07 
655.062 5.3007e-07 
655.592 5.3008e-07 
656.122 5.3009e-07 
656.652 5.30099e-07 
657.183 5.30108e-07 
657.713 5.30116e-07 
658.243 5.30125e-07 
658.773 5.30133e-07 
659.304 5.30141e-07 
659.834 5.30148e-07 
660.364 5.30156e-07 
660.895 5.30163e-07 
661.425 5.30169e-07 
661.955 5.30175e-07 
662.485 5.30182e-07 
663.016 5.30187e-07 
663.546 5.30193e-07 
664.076 5.30198e-07 
664.606 5.30203e-07 
665.137 5.30208e-07 
665.667 5.30212e-07 
666.197 5.30216e-07 
666.728 5.30219e-07 
667.258 5.30223e-07 
667.788 5.30226e-07 
668.318 5.30229e-07 
668.849 5.30231e-07 
669.379 5.30233e-07 
669.909 5.30235e-07 
670.439 5.30236e-07 
670.97 5.30238e-07 
671.5 5.30238e-07 
672.03 5.30239e-07 
672.561 5.30239e-07 
673.091 5.30239e-07 
673.621 5.30238e-07 
674.151 5.30237e-07 
674.682 5.30236e-07 
675.212 5.30234e-07 
675.742 5.30233e-07 
676.272 5.3023e-07 
676.803 5.30228e-07 
677.333 5.30225e-07 
677.863 5.30221e-07 
678.394 5.30218e-07 
678.924 5.30214e-07 
679.454 5.30209e-07 
679.984 5.30205e-07 
680.515 5.302e-07 
681.045 5.30194e-07 
681.575 5.30188e-07 
682.105 5.30182e-07 
682.636 5.30176e-07 
683.166 5.30169e-07 
683.696 5.30161e-07 
684.227 5.30154e-07 
684.757 5.30146e-07 
685.287 5.30137e-07 
685.817 5.30128e-07 
686.348 5.30119e-07 
686.878 5.3011e-07 
687.408 5.301e-07 
687.938 5.3009e-07 
688.469 5.30079e-07 
688.999 5.30068e-07 
689.529 5.30057e-07 
690.06 5.30045e-07 
690.59 5.30033e-07 
691.12 5.3002e-07 
691.65 5.30007e-07 
692.181 5.29994e-07 
692.711 5.2998e-07 
693.241 5.29966e-07 
693.771 5.29951e-07 
694.302 5.29936e-07 
694.832 5.2992e-07 
695.362 5.29905e-07 
695.893 5.29888e-07 
696.423 5.29872e-07 
696.953 5.29855e-07 
697.483 5.29837e-07 
698.014 5.29819e-07 
698.544 5.29801e-07 
699.074 5.29782e-07 
699.604 5.29762e-07 
700.135 5.29743e-07 
700.665 5.29723e-07 
701.195 5.29702e-07 
701.726 5.29681e-07 
702.256 5.2966e-07 
702.786 5.29638e-07 
703.316 5.29616e-07 
703.847 5.29594e-07 
704.377 5.2957e-07 
704.907 5.29547e-07 
705.438 5.29523e-07 
705.968 5.29499e-07 
706.498 5.29474e-07 
707.028 5.29448e-07 
707.559 5.29423e-07 
708.089 5.29396e-07 
708.619 5.29369e-07 
709.149 5.29342e-07 
709.68 5.29315e-07 
710.21 5.29287e-07 
710.74 5.29258e-07 
711.271 5.29229e-07 
711.801 5.29199e-07 
712.331 5.2917e-07 
712.861 5.29139e-07 
713.392 5.29108e-07 
713.922 5.29077e-07 
714.452 5.29045e-07 
714.982 5.29012e-07 
715.513 5.2898e-07 
716.043 5.28946e-07 
716.573 5.28913e-07 
717.104 5.28878e-07 
717.634 5.28843e-07 
718.164 5.28808e-07 
718.694 5.28772e-07 
719.225 5.28736e-07 
719.755 5.287e-07 
720.285 5.28662e-07 
720.815 5.28625e-07 
721.346 5.28586e-07 
721.876 5.28548e-07 
722.406 5.28508e-07 
722.937 5.28469e-07 
723.467 5.28429e-07 
723.997 5.28388e-07 
724.527 5.28347e-07 
725.058 5.28305e-07 
725.588 5.28262e-07 
726.118 5.2822e-07 
726.648 5.28177e-07 
727.179 5.28133e-07 
727.709 5.28088e-07 
728.239 5.28044e-07 
728.77 5.27998e-07 
729.3 5.27952e-07 
729.83 5.27906e-07 
730.36 5.27859e-07 
730.891 5.27811e-07 
731.421 5.27763e-07 
731.951 5.27715e-07 
732.481 5.27666e-07 
733.012 5.27616e-07 
733.542 5.27566e-07 
734.072 5.27515e-07 
734.603 5.27464e-07 
735.133 5.27412e-07 
735.663 5.2736e-07 
736.193 5.27306e-07 
736.724 5.27253e-07 
737.254 5.27199e-07 
737.784 5.27144e-07 
738.314 5.27089e-07 
738.845 5.27033e-07 
739.375 5.26977e-07 
739.905 5.2692e-07 
740.436 5.26863e-07 
740.966 5.26805e-07 
741.496 5.26747e-07 
742.026 5.26687e-07 
742.557 5.26628e-07 
743.087 5.26568e-07 
743.617 5.26507e-07 
744.147 5.26445e-07 
744.678 5.26383e-07 
745.208 5.26321e-07 
745.738 5.26258e-07 
746.269 5.26194e-07 
746.799 5.2613e-07 
747.329 5.26065e-07 
747.859 5.25999e-07 
748.39 5.25933e-07 
748.92 5.25867e-07 
749.45 5.258e-07 
749.98 5.25732e-07 
750.511 5.25663e-07 
751.041 5.25594e-07 
751.571 5.25525e-07 
752.102 5.25455e-07 
752.632 5.25383e-07 
753.162 5.25312e-07 
753.692 5.2524e-07 
754.223 5.25168e-07 
754.753 5.25094e-07 
755.283 5.2502e-07 
755.813 5.24946e-07 
756.344 5.24871e-07 
756.874 5.24795e-07 
757.404 5.24719e-07 
757.935 5.24642e-07 
758.465 5.24565e-07 
758.995 5.24486e-07 
759.525 5.24408e-07 
760.056 5.24329e-07 
760.586 5.24248e-07 
761.116 5.24168e-07 
761.646 5.24087e-07 
762.177 5.24005e-07 
762.707 5.23922e-07 
763.237 5.23839e-07 
763.768 5.23756e-07 
764.298 5.23671e-07 
764.828 5.23586e-07 
765.358 5.23501e-07 
765.889 5.23415e-07 
766.419 5.23328e-07 
766.949 5.2324e-07 
767.479 5.23152e-07 
768.01 5.23063e-07 
768.54 5.22974e-07 
769.07 5.22884e-07 
769.601 5.22793e-07 
770.131 5.22702e-07 
770.661 5.2261e-07 
771.191 5.22517e-07 
771.722 5.22424e-07 
772.252 5.2233e-07 
772.782 5.22235e-07 
773.312 5.2214e-07 
773.843 5.22044e-07 
774.373 5.21948e-07 
774.903 5.2185e-07 
775.434 5.21753e-07 
775.964 5.21654e-07 
776.494 5.21555e-07 
777.024 5.21455e-07 
777.555 5.21355e-07 
778.085 5.21254e-07 
778.615 5.21152e-07 
779.146 5.21049e-07 
779.676 5.20946e-07 
780.206 5.20843e-07 
780.736 5.20738e-07 
781.267 5.20633e-07 
781.797 5.20528e-07 
782.327 5.20421e-07 
782.857 5.20314e-07 
783.388 5.20206e-07 
783.918 5.20098e-07 
784.448 5.19989e-07 
784.979 5.19879e-07 
785.509 5.19769e-07 
786.039 5.19658e-07 
786.569 5.19547e-07 
787.1 5.19434e-07 
787.63 5.19321e-07 
788.16 5.19207e-07 
788.69 5.19093e-07 
789.221 5.18978e-07 
789.751 5.18862e-07 
790.281 5.18746e-07 
790.812 5.18629e-07 
791.342 5.18511e-07 
791.872 5.18393e-07 
792.402 5.18274e-07 
792.933 5.18154e-07 
793.463 5.18034e-07 
793.993 5.17913e-07 
794.523 5.17792e-07 
795.054 5.17669e-07 
795.584 5.17546e-07 
796.114 5.17423e-07 
796.645 5.17299e-07 
797.175 5.17174e-07 
797.705 5.17048e-07 
798.235 5.16922e-07 
798.766 5.16795e-07 
799.296 5.16667e-07 
799.826 5.16539e-07 
800.356 5.16411e-07 
800.887 5.16281e-07 
801.417 5.16151e-07 
801.947 5.1602e-07 
802.478 5.15888e-07 
803.008 5.15756e-07 
803.538 5.15623e-07 
804.068 5.1549e-07 
804.599 5.15356e-07 
805.129 5.15221e-07 
805.659 5.15086e-07 
806.189 5.1495e-07 
806.72 5.14812e-07 
807.25 5.14675e-07 
807.78 5.14537e-07 
808.311 5.14398e-07 
808.841 5.14259e-07 
809.371 5.14119e-07 
809.901 5.13979e-07 
810.432 5.13838e-07 
810.962 5.13696e-07 
811.492 5.13553e-07 
812.022 5.1341e-07 
812.553 5.13266e-07 
813.083 5.13122e-07 
813.613 5.12977e-07 
814.144 5.12831e-07 
814.674 5.12685e-07 
815.204 5.12538e-07 
815.734 5.12391e-07 
816.265 5.12242e-07 
816.795 5.12094e-07 
817.325 5.11944e-07 
817.855 5.11794e-07 
818.386 5.11644e-07 
818.916 5.11493e-07 
819.446 5.11341e-07 
819.977 5.11189e-07 
820.507 5.11036e-07 
821.037 5.10883e-07 
821.567 5.10729e-07 
822.098 5.10574e-07 
822.628 5.10419e-07 
823.158 5.10263e-07 
823.688 5.10106e-07 
824.219 5.0995e-07 
824.749 5.09792e-07 
825.279 5.09634e-07 
825.81 5.09475e-07 
826.34 5.09316e-07 
826.87 5.09156e-07 
827.4 5.08996e-07 
827.931 5.08835e-07 
828.461 5.08674e-07 
828.991 5.08512e-07 
829.521 5.08349e-07 
830.052 5.08186e-07 
830.582 5.08023e-07 
831.112 5.07859e-07 
831.643 5.07694e-07 
832.173 5.0753e-07 
832.703 5.07364e-07 
833.233 5.07198e-07 
833.764 5.07032e-07 
834.294 5.06865e-07 
834.824 5.06697e-07 
835.354 5.06529e-07 
835.885 5.06361e-07 
836.415 5.06192e-07 
836.945 5.06023e-07 
837.476 5.05853e-07 
838.006 5.05683e-07 
838.536 5.05512e-07 
839.066 5.05341e-07 
839.597 5.0517e-07 
840.127 5.04998e-07 
840.657 5.04825e-07 
841.188 5.04653e-07 
841.718 5.0448e-07 
842.248 5.04306e-07 
842.778 5.04132e-07 
843.309 5.03958e-07 
843.839 5.03784e-07 
844.369 5.03609e-07 
844.899 5.03434e-07 
845.43 5.03257e-07 
845.96 5.03081e-07 
846.49 5.02905e-07 
847.021 5.02728e-07 
847.551 5.02552e-07 
848.081 5.02375e-07 
848.611 5.02197e-07 
849.142 5.02019e-07 
849.672 5.01841e-07 
850.202 5.01663e-07 
850.732 5.01484e-07 
851.263 5.01306e-07 
851.793 5.01126e-07 
852.323 5.00947e-07 
852.854 5.00768e-07 
853.384 5.00588e-07 
853.914 5.00408e-07 
854.444 5.00228e-07 
854.975 5.00048e-07 
855.505 4.99868e-07 
856.035 4.99688e-07 
856.565 4.99507e-07 
857.096 4.99326e-07 
857.626 4.99145e-07 
858.156 4.98965e-07 
858.687 4.98783e-07 
859.217 4.98603e-07 
859.747 4.98422e-07 
860.277 4.98241e-07 
860.808 4.9806e-07 
861.338 4.97879e-07 
861.868 4.97698e-07 
862.398 4.97517e-07 
862.929 4.97336e-07 
863.459 4.97155e-07 
863.989 4.96974e-07 
864.52 4.96794e-07 
865.05 4.96613e-07 
865.58 4.96433e-07 
866.11 4.96253e-07 
866.641 4.96073e-07 
867.171 4.95894e-07 
867.701 4.95714e-07 
868.231 4.95535e-07 
868.762 4.95356e-07 
869.292 4.95178e-07 
869.822 4.94999e-07 
870.353 4.94822e-07 
870.883 4.94644e-07 
871.413 4.94467e-07 
871.943 4.9429e-07 
872.474 4.94114e-07 
873.004 4.93938e-07 
873.534 4.93764e-07 
874.064 4.93589e-07 
874.595 4.93414e-07 
875.125 4.93241e-07 
875.655 4.93069e-07 
876.186 4.92897e-07 
876.716 4.92726e-07 
877.246 4.92555e-07 
877.776 4.92385e-07 
878.307 4.92216e-07 
878.837 4.92048e-07 
879.367 4.91882e-07 
879.897 4.91715e-07 
880.428 4.9155e-07 
880.958 4.91386e-07 
881.488 4.91222e-07 
882.019 4.9106e-07 
882.549 4.90899e-07 
883.079 4.90739e-07 
883.609 4.90581e-07 
884.14 4.90423e-07 
884.67 4.90266e-07 
885.2 4.90112e-07 
885.73 4.89958e-07 
886.261 4.89804e-07 
886.791 4.89653e-07 
887.321 4.89503e-07 
887.852 4.89354e-07 
888.382 4.89207e-07 
888.912 4.8906e-07 
889.442 4.88915e-07 
889.973 4.88771e-07 
890.503 4.88628e-07 
891.033 4.88486e-07 
891.563 4.88346e-07 
892.094 4.88206e-07 
892.624 4.88067e-07 
893.154 4.87929e-07 
893.685 4.87791e-07 
894.215 4.87654e-07 
894.745 4.87517e-07 
895.275 4.8738e-07 
895.806 4.87243e-07 
896.336 4.87105e-07 
896.866 4.86967e-07 
897.396 4.86828e-07 
897.927 4.86688e-07 
898.457 4.86546e-07 
898.987 4.86402e-07 
899.518 4.86255e-07 
900.048 4.86104e-07 
900.578 4.85951e-07 
901.108 4.85793e-07 
901.639 4.8563e-07 
902.169 4.85461e-07 
902.699 4.85285e-07 
903.229 4.85103e-07 
903.76 4.84911e-07 
904.29 4.84711e-07 
904.82 4.84499e-07 
905.351 4.84276e-07 
905.881 4.84041e-07 
906.411 4.83791e-07 
906.941 4.83524e-07 
907.472 4.83241e-07 
908.002 4.82939e-07 
908.532 4.82616e-07 
909.062 4.8227e-07 
