Dataset Au #2 1-5 2:55(rrt_before_cleaning)
Dwell Time (s)	0.100000
Number of sweeps	1
Kinetic Energy(eV)	Binding Energy(eV)	Intensity(cps)	Transmission Value
0.210000	21.000000	3140.000000	1.000000
0.235000	20.975000	3010.000000	1.000000
0.260000	20.950000	3110.000000	1.000000
0.285000	20.925000	3040.000000	1.000000
0.310000	20.900000	2950.000000	1.000000
0.335000	20.875000	3010.000000	1.000000
0.360000	20.850000	2810.000000	1.000000
0.385000	20.825000	2900.000000	1.000000
0.410000	20.800000	2850.000000	1.000000
0.435000	20.775000	2780.000000	1.000000
0.460000	20.750000	2710.000000	1.000000
0.485000	20.725000	2700.000000	1.000000
0.510000	20.700000	3190.000000	1.000000
0.535000	20.675000	3190.000000	1.000000
0.560000	20.650000	2740.000000	1.000000
0.585000	20.625000	2910.000000	1.000000
0.610000	20.600000	2820.000000	1.000000
0.635000	20.575000	2770.000000	1.000000
0.660000	20.550000	3070.000000	1.000000
0.685000	20.525000	2840.000000	1.000000
0.710000	20.500000	2990.000000	1.000000
0.735000	20.475000	3080.000000	1.000000
0.760000	20.450000	2970.000000	1.000000
0.785000	20.425000	2830.000000	1.000000
0.810000	20.400000	2980.000000	1.000000
0.835000	20.375000	2750.000000	1.000000
0.860000	20.350000	2740.000000	1.000000
0.885000	20.325000	3060.000000	1.000000
0.910000	20.300000	2930.000000	1.000000
0.935000	20.275000	2770.000000	1.000000
0.960000	20.250000	3150.000000	1.000000
0.985000	20.225000	2820.000000	1.000000
1.010000	20.200000	2690.000000	1.000000
1.035000	20.175000	2750.000000	1.000000
1.060000	20.150000	2690.000000	1.000000
1.085000	20.125000	2600.000000	1.000000
1.110000	20.100000	2690.000000	1.000000
1.135000	20.075000	2910.000000	1.000000
1.160000	20.050000	2840.000000	1.000000
1.185000	20.025000	2790.000000	1.000000
1.210000	20.000000	2840.000000	1.000000
1.235000	19.975000	2630.000000	1.000000
1.260000	19.950000	2930.000000	1.000000
1.285000	19.925000	2740.000000	1.000000
1.310000	19.900000	2830.000000	1.000000
1.335000	19.875000	2720.000000	1.000000
1.360000	19.850000	2720.000000	1.000000
1.385000	19.825000	2820.000000	1.000000
1.410000	19.800000	2530.000000	1.000000
1.435000	19.775000	2760.000000	1.000000
1.460000	19.750000	2790.000000	1.000000
1.485000	19.725000	2910.000000	1.000000
1.510000	19.700000	2770.000000	1.000000
1.535000	19.675000	2730.000000	1.000000
1.560000	19.650000	2650.000000	1.000000
1.585000	19.625000	2650.000000	1.000000
1.610000	19.600000	2890.000000	1.000000
1.635000	19.575000	2900.000000	1.000000
1.660000	19.550000	2810.000000	1.000000
1.685000	19.525000	2560.000000	1.000000
1.710000	19.500000	2620.000000	1.000000
1.735000	19.475000	2910.000000	1.000000
1.760000	19.450000	2810.000000	1.000000
1.785000	19.425000	3100.000000	1.000000
1.810000	19.400000	2730.000000	1.000000
1.835000	19.375000	2720.000000	1.000000
1.860000	19.350000	2730.000000	1.000000
1.885000	19.325000	2870.000000	1.000000
1.910000	19.300000	2940.000000	1.000000
1.935000	19.275000	2550.000000	1.000000
1.960000	19.250000	2680.000000	1.000000
1.985000	19.225000	2540.000000	1.000000
2.010000	19.200000	2640.000000	1.000000
2.035000	19.175000	2620.000000	1.000000
2.060000	19.150000	2310.000000	1.000000
2.085000	19.125000	2420.000000	1.000000
2.110000	19.100000	2460.000000	1.000000
2.135000	19.075000	2660.000000	1.000000
2.160000	19.050000	2610.000000	1.000000
2.185000	19.025000	2410.000000	1.000000
2.210000	19.000000	2480.000000	1.000000
2.235000	18.975000	2610.000000	1.000000
2.260000	18.950000	2500.000000	1.000000
2.285000	18.925000	2710.000000	1.000000
2.310000	18.900000	2640.000000	1.000000
2.335000	18.875000	2720.000000	1.000000
2.360000	18.850000	2770.000000	1.000000
2.385000	18.825000	2700.000000	1.000000
2.410000	18.800000	2620.000000	1.000000
2.435000	18.775000	2640.000000	1.000000
2.460000	18.750000	2800.000000	1.000000
2.485000	18.725000	2450.000000	1.000000
2.510000	18.700000	2500.000000	1.000000
2.535000	18.675000	2520.000000	1.000000
2.560000	18.650000	2700.000000	1.000000
2.585000	18.625000	2610.000000	1.000000
2.610000	18.600000	2380.000000	1.000000
2.635000	18.575000	2750.000000	1.000000
2.660000	18.550000	2610.000000	1.000000
2.685000	18.525000	2720.000000	1.000000
2.710000	18.500000	2590.000000	1.000000
2.735000	18.475000	2730.000000	1.000000
2.760000	18.450000	2540.000000	1.000000
2.785000	18.425000	2730.000000	1.000000
2.810000	18.400000	2380.000000	1.000000
2.835000	18.375000	2440.000000	1.000000
2.860000	18.350000	2660.000000	1.000000
2.885000	18.325000	2510.000000	1.000000
2.910000	18.300000	2510.000000	1.000000
2.935000	18.275000	2570.000000	1.000000
2.960000	18.250000	2450.000000	1.000000
2.985000	18.225000	2770.000000	1.000000
3.010000	18.200000	2650.000000	1.000000
3.035000	18.175000	2540.000000	1.000000
3.060000	18.150000	2670.000000	1.000000
3.085000	18.125000	2470.000000	1.000000
3.110000	18.100000	2340.000000	1.000000
3.135000	18.075000	2640.000000	1.000000
3.160000	18.050000	2790.000000	1.000000
3.185000	18.025000	2740.000000	1.000000
3.210000	18.000000	2420.000000	1.000000
3.235000	17.975000	2770.000000	1.000000
3.260000	17.950000	2700.000000	1.000000
3.285000	17.925000	2710.000000	1.000000
3.310000	17.900000	2460.000000	1.000000
3.335000	17.875000	2520.000000	1.000000
3.360000	17.850000	2510.000000	1.000000
3.385000	17.825000	2690.000000	1.000000
3.410000	17.800000	2520.000000	1.000000
3.435000	17.775000	2400.000000	1.000000
3.460000	17.750000	2470.000000	1.000000
3.485000	17.725000	2450.000000	1.000000
3.510000	17.700000	2540.000000	1.000000
3.535000	17.675000	2580.000000	1.000000
3.560000	17.650000	2770.000000	1.000000
3.585000	17.625000	2590.000000	1.000000
3.610000	17.600000	2710.000000	1.000000
3.635000	17.575000	2290.000000	1.000000
3.660000	17.550000	2380.000000	1.000000
3.685000	17.525000	2650.000000	1.000000
3.710000	17.500000	2520.000000	1.000000
3.735000	17.475000	2380.000000	1.000000
3.760000	17.450000	2580.000000	1.000000
3.785000	17.425000	2680.000000	1.000000
3.810000	17.400000	2510.000000	1.000000
3.835000	17.375000	2640.000000	1.000000
3.860000	17.350000	2310.000000	1.000000
3.885000	17.325000	2420.000000	1.000000
3.910000	17.300000	2510.000000	1.000000
3.935000	17.275000	2360.000000	1.000000
3.960000	17.250000	2500.000000	1.000000
3.985000	17.225000	2380.000000	1.000000
4.010000	17.200000	2410.000000	1.000000
4.035000	17.175000	2600.000000	1.000000
4.060000	17.150000	2480.000000	1.000000
4.085000	17.125000	2450.000000	1.000000
4.110000	17.100000	2410.000000	1.000000
4.135000	17.075000	2500.000000	1.000000
4.160000	17.050000	2600.000000	1.000000
4.185000	17.025000	2630.000000	1.000000
4.210000	17.000000	2560.000000	1.000000
4.235000	16.975000	2550.000000	1.000000
4.260000	16.950000	2880.000000	1.000000
4.285000	16.925000	2690.000000	1.000000
4.310000	16.900000	2480.000000	1.000000
4.335000	16.875000	2500.000000	1.000000
4.360000	16.850000	2800.000000	1.000000
4.385000	16.825000	2660.000000	1.000000
4.410000	16.800000	2400.000000	1.000000
4.435000	16.775000	2790.000000	1.000000
4.460000	16.750000	2930.000000	1.000000
4.485000	16.725000	2790.000000	1.000000
4.510000	16.700000	2710.000000	1.000000
4.535000	16.675000	2790.000000	1.000000
4.560000	16.650000	2700.000000	1.000000
4.585000	16.625000	3010.000000	1.000000
4.610000	16.600000	2780.000000	1.000000
4.635000	16.575000	2970.000000	1.000000
4.660000	16.550000	3120.000000	1.000000
4.685000	16.525000	3150.000000	1.000000
4.710000	16.500000	3810.000000	1.000000
4.735000	16.475000	5480.000000	1.000000
4.760000	16.450000	8140.000000	1.000000
4.785000	16.425000	10880.000000	1.000000
4.810000	16.400000	14230.000000	1.000000
4.835000	16.375000	17070.000000	1.000000
4.860000	16.350000	19150.000000	1.000000
4.885000	16.325000	21210.000000	1.000000
4.910000	16.300000	23540.000000	1.000000
4.935000	16.275000	26010.000000	1.000000
4.960000	16.250000	27220.000000	1.000000
4.985000	16.225000	29780.000000	1.000000
5.010000	16.200000	30940.000000	1.000000
5.035000	16.175000	32330.000000	1.000000
5.060000	16.150000	34120.000000	1.000000
5.085000	16.125000	35250.000000	1.000000
5.110000	16.100000	38580.000000	1.000000
5.135000	16.075000	40070.000000	1.000000
5.160000	16.050000	40300.000000	1.000000
5.185000	16.025000	41710.000000	1.000000
5.210000	16.000000	43330.000000	1.000000
5.235000	15.975000	43670.000000	1.000000
5.260000	15.950000	45510.000000	1.000000
5.285000	15.925000	47650.000000	1.000000
5.310000	15.900000	48660.000000	1.000000
5.335000	15.875000	49940.000000	1.000000
5.360000	15.850000	49710.000000	1.000000
5.385000	15.825000	50650.000000	1.000000
5.410000	15.800000	51690.000000	1.000000
5.435000	15.775000	53910.000000	1.000000
5.460000	15.750000	55040.000000	1.000000
5.485000	15.725000	56830.000000	1.000000
5.510000	15.700000	57380.000000	1.000000
5.535000	15.675000	58270.000000	1.000000
5.560000	15.650000	58050.000000	1.000000
5.585000	15.625000	58130.000000	1.000000
5.610000	15.600000	59820.000000	1.000000
5.635000	15.575000	61160.000000	1.000000
5.660000	15.550000	62650.000000	1.000000
5.685000	15.525000	63690.000000	1.000000
5.710000	15.500000	63910.000000	1.000000
5.735000	15.475000	64670.000000	1.000000
5.760000	15.450000	64630.000000	1.000000
5.785000	15.425000	66010.000000	1.000000
5.810000	15.400000	66170.000000	1.000000
5.835000	15.375000	66530.000000	1.000000
5.860000	15.350000	68170.000000	1.000000
5.885000	15.325000	68360.000000	1.000000
5.910000	15.300000	68920.000000	1.000000
5.935000	15.275000	69700.000000	1.000000
5.960000	15.250000	69660.000000	1.000000
5.985000	15.225000	70760.000000	1.000000
6.010000	15.200000	70980.000000	1.000000
6.035000	15.175000	71900.000000	1.000000
6.060000	15.150000	72360.000000	1.000000
6.085000	15.125000	71430.000000	1.000000
6.110000	15.100000	73100.000000	1.000000
6.135000	15.075000	73810.000000	1.000000
6.160000	15.050000	73910.000000	1.000000
6.185000	15.025000	74830.000000	1.000000
6.210000	15.000000	74160.000000	1.000000
6.235000	14.975000	74690.000000	1.000000
6.260000	14.950000	74630.000000	1.000000
6.285000	14.925000	75440.000000	1.000000
6.310000	14.900000	76110.000000	1.000000
6.335000	14.875000	76000.000000	1.000000
6.360000	14.850000	77670.000000	1.000000
6.385000	14.825000	76140.000000	1.000000
6.410000	14.800000	74980.000000	1.000000
6.435000	14.775000	74820.000000	1.000000
6.460000	14.750000	76950.000000	1.000000
6.485000	14.725000	77160.000000	1.000000
6.510000	14.700000	75060.000000	1.000000
6.535000	14.675000	76530.000000	1.000000
6.560000	14.650000	75760.000000	1.000000
6.585000	14.625000	76960.000000	1.000000
6.610000	14.600000	76750.000000	1.000000
6.635000	14.575000	76950.000000	1.000000
6.660000	14.550000	77260.000000	1.000000
6.685000	14.525000	76120.000000	1.000000
6.710000	14.500000	77190.000000	1.000000
6.735000	14.475000	76210.000000	1.000000
6.760000	14.450000	77060.000000	1.000000
6.785000	14.425000	76990.000000	1.000000
6.810000	14.400000	76010.000000	1.000000
6.835000	14.375000	75230.000000	1.000000
6.860000	14.350000	75290.000000	1.000000
6.885000	14.325000	74210.000000	1.000000
6.910000	14.300000	74900.000000	1.000000
6.935000	14.275000	75650.000000	1.000000
6.960000	14.250000	75650.000000	1.000000
6.985000	14.225000	74280.000000	1.000000
7.010000	14.200000	75090.000000	1.000000
7.035000	14.175000	75130.000000	1.000000
7.060000	14.150000	74080.000000	1.000000
7.085000	14.125000	73620.000000	1.000000
7.110000	14.100000	74460.000000	1.000000
7.135000	14.075000	73130.000000	1.000000
7.160000	14.050000	74550.000000	1.000000
7.185000	14.025000	73620.000000	1.000000
7.210000	14.000000	72370.000000	1.000000
7.235000	13.975000	71620.000000	1.000000
7.260000	13.950000	72080.000000	1.000000
7.285000	13.925000	72730.000000	1.000000
7.310000	13.900000	71560.000000	1.000000
7.335000	13.875000	72380.000000	1.000000
7.360000	13.850000	72580.000000	1.000000
7.385000	13.825000	72310.000000	1.000000
7.410000	13.800000	70300.000000	1.000000
7.435000	13.775000	71360.000000	1.000000
7.460000	13.750000	71200.000000	1.000000
7.485000	13.725000	70750.000000	1.000000
7.510000	13.700000	71080.000000	1.000000
7.535000	13.675000	68820.000000	1.000000
7.560000	13.650000	68800.000000	1.000000
7.585000	13.625000	69590.000000	1.000000
7.610000	13.600000	69090.000000	1.000000
7.635000	13.575000	68870.000000	1.000000
7.660000	13.550000	67690.000000	1.000000
7.685000	13.525000	66340.000000	1.000000
7.710000	13.500000	66280.000000	1.000000
7.735000	13.475000	65680.000000	1.000000
7.760000	13.450000	65940.000000	1.000000
7.785000	13.425000	65780.000000	1.000000
7.810000	13.400000	65210.000000	1.000000
7.835000	13.375000	65940.000000	1.000000
7.860000	13.350000	66390.000000	1.000000
7.885000	13.325000	65950.000000	1.000000
7.910000	13.300000	63860.000000	1.000000
7.935000	13.275000	63360.000000	1.000000
7.960000	13.250000	62170.000000	1.000000
7.985000	13.225000	62690.000000	1.000000
8.010000	13.200000	62870.000000	1.000000
8.035000	13.175000	61810.000000	1.000000
8.060000	13.150000	60940.000000	1.000000
8.085000	13.125000	61880.000000	1.000000
8.110000	13.100000	61370.000000	1.000000
8.135000	13.075000	60840.000000	1.000000
8.160000	13.050000	59900.000000	1.000000
8.185000	13.025000	59970.000000	1.000000
8.210000	13.000000	59450.000000	1.000000
8.235000	12.975000	58200.000000	1.000000
8.260000	12.950000	58760.000000	1.000000
8.285000	12.925000	58540.000000	1.000000
8.310000	12.900000	57580.000000	1.000000
8.335000	12.875000	57050.000000	1.000000
8.360000	12.850000	57300.000000	1.000000
8.385000	12.825000	56800.000000	1.000000
8.410000	12.800000	56240.000000	1.000000
8.435000	12.775000	55440.000000	1.000000
8.460000	12.750000	55900.000000	1.000000
8.485000	12.725000	54610.000000	1.000000
8.510000	12.700000	55320.000000	1.000000
8.535000	12.675000	54710.000000	1.000000
8.560000	12.650000	53510.000000	1.000000
8.585000	12.625000	53520.000000	1.000000
8.610000	12.600000	52850.000000	1.000000
8.635000	12.575000	52190.000000	1.000000
8.660000	12.550000	51910.000000	1.000000
8.685000	12.525000	51240.000000	1.000000
8.710000	12.500000	50380.000000	1.000000
8.735000	12.475000	50610.000000	1.000000
8.760000	12.450000	51400.000000	1.000000
8.785000	12.425000	50190.000000	1.000000
8.810000	12.400000	51170.000000	1.000000
8.835000	12.375000	49290.000000	1.000000
8.860000	12.350000	48770.000000	1.000000
8.885000	12.325000	49260.000000	1.000000
8.910000	12.300000	48510.000000	1.000000
8.935000	12.275000	47760.000000	1.000000
8.960000	12.250000	47470.000000	1.000000
8.985000	12.225000	47840.000000	1.000000
9.010000	12.200000	47400.000000	1.000000
9.035000	12.175000	47430.000000	1.000000
9.060000	12.150000	46180.000000	1.000000
9.085000	12.125000	46060.000000	1.000000
9.110000	12.100000	45440.000000	1.000000
9.135000	12.075000	46070.000000	1.000000
9.160000	12.050000	45040.000000	1.000000
9.185000	12.025000	44460.000000	1.000000
9.210000	12.000000	44300.000000	1.000000
9.235000	11.975000	45030.000000	1.000000
9.260000	11.950000	44750.000000	1.000000
9.285000	11.925000	43960.000000	1.000000
9.310000	11.900000	43460.000000	1.000000
9.335000	11.875000	42440.000000	1.000000
9.360000	11.850000	42870.000000	1.000000
9.385000	11.825000	42450.000000	1.000000
9.410000	11.800000	42590.000000	1.000000
9.435000	11.775000	43300.000000	1.000000
9.460000	11.750000	42470.000000	1.000000
9.485000	11.725000	42610.000000	1.000000
9.510000	11.700000	41340.000000	1.000000
9.535000	11.675000	41210.000000	1.000000
9.560000	11.650000	41020.000000	1.000000
9.585000	11.625000	41460.000000	1.000000
9.610000	11.600000	42120.000000	1.000000
9.635000	11.575000	41770.000000	1.000000
9.660000	11.550000	41410.000000	1.000000
9.685000	11.525000	41470.000000	1.000000
9.710000	11.500000	40260.000000	1.000000
9.735000	11.475000	38530.000000	1.000000
9.760000	11.450000	39540.000000	1.000000
9.785000	11.425000	41380.000000	1.000000
9.810000	11.400000	39670.000000	1.000000
9.835000	11.375000	39890.000000	1.000000
9.860000	11.350000	39770.000000	1.000000
9.885000	11.325000	40140.000000	1.000000
9.910000	11.300000	40390.000000	1.000000
9.935000	11.275000	39870.000000	1.000000
9.960000	11.250000	39170.000000	1.000000
9.985000	11.225000	40080.000000	1.000000
10.010000	11.200000	39920.000000	1.000000
10.035000	11.175000	40140.000000	1.000000
10.060000	11.150000	40350.000000	1.000000
10.085000	11.125000	40390.000000	1.000000
10.110000	11.100000	40780.000000	1.000000
10.135000	11.075000	39700.000000	1.000000
10.160000	11.050000	40420.000000	1.000000
10.185000	11.025000	40370.000000	1.000000
10.210000	11.000000	41500.000000	1.000000
10.235000	10.975000	41400.000000	1.000000
10.260000	10.950000	39710.000000	1.000000
10.285000	10.925000	40930.000000	1.000000
10.310000	10.900000	41330.000000	1.000000
10.335000	10.875000	41130.000000	1.000000
10.360000	10.850000	41560.000000	1.000000
10.385000	10.825000	41620.000000	1.000000
10.410000	10.800000	41460.000000	1.000000
10.435000	10.775000	41400.000000	1.000000
10.460000	10.750000	41800.000000	1.000000
10.485000	10.725000	42350.000000	1.000000
10.510000	10.700000	43750.000000	1.000000
10.535000	10.675000	42500.000000	1.000000
10.560000	10.650000	42630.000000	1.000000
10.585000	10.625000	43000.000000	1.000000
10.610000	10.600000	43440.000000	1.000000
10.635000	10.575000	43720.000000	1.000000
10.660000	10.550000	43460.000000	1.000000
10.685000	10.525000	44160.000000	1.000000
10.710000	10.500000	44150.000000	1.000000
10.735000	10.475000	44730.000000	1.000000
10.760000	10.450000	44010.000000	1.000000
10.785000	10.425000	44020.000000	1.000000
10.810000	10.400000	44740.000000	1.000000
10.835000	10.375000	44550.000000	1.000000
10.860000	10.350000	44850.000000	1.000000
10.885000	10.325000	44710.000000	1.000000
10.910000	10.300000	45230.000000	1.000000
10.935000	10.275000	45110.000000	1.000000
10.960000	10.250000	45080.000000	1.000000
10.985000	10.225000	45540.000000	1.000000
11.010000	10.200000	44630.000000	1.000000
11.035000	10.175000	44670.000000	1.000000
11.060000	10.150000	45450.000000	1.000000
11.085000	10.125000	46050.000000	1.000000
11.110000	10.100000	44760.000000	1.000000
11.135000	10.075000	45940.000000	1.000000
11.160000	10.050000	45760.000000	1.000000
11.185000	10.025000	46220.000000	1.000000
11.210000	10.000000	45650.000000	1.000000
11.235000	9.975000	46680.000000	1.000000
11.260000	9.950000	46760.000000	1.000000
11.285000	9.925000	46520.000000	1.000000
11.310000	9.900000	46540.000000	1.000000
11.335000	9.875000	46760.000000	1.000000
11.360000	9.850000	47190.000000	1.000000
11.385000	9.825000	46810.000000	1.000000
11.410000	9.800000	46840.000000	1.000000
11.435000	9.775000	45910.000000	1.000000
11.460000	9.750000	46840.000000	1.000000
11.485000	9.725000	48100.000000	1.000000
11.510000	9.700000	47350.000000	1.000000
11.535000	9.675000	47330.000000	1.000000
11.560000	9.650000	47950.000000	1.000000
11.585000	9.625000	46090.000000	1.000000
11.610000	9.600000	47400.000000	1.000000
11.635000	9.575000	47970.000000	1.000000
11.660000	9.550000	47170.000000	1.000000
11.685000	9.525000	46500.000000	1.000000
11.710000	9.500000	47630.000000	1.000000
11.735000	9.475000	48080.000000	1.000000
11.760000	9.450000	47880.000000	1.000000
11.785000	9.425000	48370.000000	1.000000
11.810000	9.400000	48350.000000	1.000000
11.835000	9.375000	48110.000000	1.000000
11.860000	9.350000	46930.000000	1.000000
11.885000	9.325000	47120.000000	1.000000
11.910000	9.300000	47180.000000	1.000000
11.935000	9.275000	48070.000000	1.000000
11.960000	9.250000	47860.000000	1.000000
11.985000	9.225000	47240.000000	1.000000
12.010000	9.200000	47260.000000	1.000000
12.035000	9.175000	48200.000000	1.000000
12.060000	9.150000	48080.000000	1.000000
12.085000	9.125000	47470.000000	1.000000
12.110000	9.100000	47340.000000	1.000000
12.135000	9.075000	47770.000000	1.000000
12.160000	9.050000	47790.000000	1.000000
12.185000	9.025000	48930.000000	1.000000
12.210000	9.000000	48880.000000	1.000000
12.235000	8.975000	48800.000000	1.000000
12.260000	8.950000	48810.000000	1.000000
12.285000	8.925000	48220.000000	1.000000
12.310000	8.900000	49170.000000	1.000000
12.335000	8.875000	47830.000000	1.000000
12.360000	8.850000	48610.000000	1.000000
12.385000	8.825000	48810.000000	1.000000
12.410000	8.800000	48680.000000	1.000000
12.435000	8.775000	48550.000000	1.000000
12.460000	8.750000	48310.000000	1.000000
12.485000	8.725000	48440.000000	1.000000
12.510000	8.700000	47550.000000	1.000000
12.535000	8.675000	47660.000000	1.000000
12.560000	8.650000	49070.000000	1.000000
12.585000	8.625000	48360.000000	1.000000
12.610000	8.600000	48510.000000	1.000000
12.635000	8.575000	48850.000000	1.000000
12.660000	8.550000	48050.000000	1.000000
12.685000	8.525000	47710.000000	1.000000
12.710000	8.500000	47500.000000	1.000000
12.735000	8.475000	48690.000000	1.000000
12.760000	8.450000	48120.000000	1.000000
12.785000	8.425000	47840.000000	1.000000
12.810000	8.400000	48570.000000	1.000000
12.835000	8.375000	49200.000000	1.000000
12.860000	8.350000	49960.000000	1.000000
12.885000	8.325000	48290.000000	1.000000
12.910000	8.300000	47540.000000	1.000000
12.935000	8.275000	48680.000000	1.000000
12.960000	8.250000	48900.000000	1.000000
12.985000	8.225000	49390.000000	1.000000
13.010000	8.200000	49040.000000	1.000000
13.035000	8.175000	49740.000000	1.000000
13.060000	8.150000	48830.000000	1.000000
13.085000	8.125000	48880.000000	1.000000
13.110000	8.100000	48830.000000	1.000000
13.135000	8.075000	49690.000000	1.000000
13.160000	8.050000	49020.000000	1.000000
13.185000	8.025000	49560.000000	1.000000
13.210000	8.000000	49390.000000	1.000000
13.235000	7.975000	50240.000000	1.000000
13.260000	7.950000	49540.000000	1.000000
13.285000	7.925000	48990.000000	1.000000
13.310000	7.900000	49310.000000	1.000000
13.335000	7.875000	48650.000000	1.000000
13.360000	7.850000	49670.000000	1.000000
13.385000	7.825000	49570.000000	1.000000
13.410000	7.800000	49840.000000	1.000000
13.435000	7.775000	50360.000000	1.000000
13.460000	7.750000	49810.000000	1.000000
13.485000	7.725000	48920.000000	1.000000
13.510000	7.700000	49170.000000	1.000000
13.535000	7.675000	48970.000000	1.000000
13.560000	7.650000	49830.000000	1.000000
13.585000	7.625000	49200.000000	1.000000
13.610000	7.600000	49720.000000	1.000000
13.635000	7.575000	50160.000000	1.000000
13.660000	7.550000	49400.000000	1.000000
13.685000	7.525000	49580.000000	1.000000
13.710000	7.500000	48930.000000	1.000000
13.735000	7.475000	48320.000000	1.000000
13.760000	7.450000	48820.000000	1.000000
13.785000	7.425000	49820.000000	1.000000
13.810000	7.400000	50050.000000	1.000000
13.835000	7.375000	50280.000000	1.000000
13.860000	7.350000	49570.000000	1.000000
13.885000	7.325000	49800.000000	1.000000
13.910000	7.300000	49460.000000	1.000000
13.935000	7.275000	49180.000000	1.000000
13.960000	7.250000	48840.000000	1.000000
13.985000	7.225000	48780.000000	1.000000
14.010000	7.200000	49510.000000	1.000000
14.035000	7.175000	49250.000000	1.000000
14.060000	7.150000	48060.000000	1.000000
14.085000	7.125000	47940.000000	1.000000
14.110000	7.100000	48180.000000	1.000000
14.135000	7.075000	48200.000000	1.000000
14.160000	7.050000	49990.000000	1.000000
14.185000	7.025000	48570.000000	1.000000
14.210000	7.000000	49320.000000	1.000000
14.235000	6.975000	49600.000000	1.000000
14.260000	6.950000	49790.000000	1.000000
14.285000	6.925000	48830.000000	1.000000
14.310000	6.900000	50230.000000	1.000000
14.335000	6.875000	48680.000000	1.000000
14.360000	6.850000	49120.000000	1.000000
14.385000	6.825000	49220.000000	1.000000
14.410000	6.800000	48280.000000	1.000000
14.435000	6.775000	49950.000000	1.000000
14.460000	6.750000	50420.000000	1.000000
14.485000	6.725000	50570.000000	1.000000
14.510000	6.700000	49680.000000	1.000000
14.535000	6.675000	49280.000000	1.000000
14.560000	6.650000	48720.000000	1.000000
14.585000	6.625000	50000.000000	1.000000
14.610000	6.600000	48900.000000	1.000000
14.635000	6.575000	49920.000000	1.000000
14.660000	6.550000	50450.000000	1.000000
14.685000	6.525000	49270.000000	1.000000
14.710000	6.500000	50260.000000	1.000000
14.735000	6.475000	49590.000000	1.000000
14.760000	6.450000	49350.000000	1.000000
14.785000	6.425000	50350.000000	1.000000
14.810000	6.400000	49630.000000	1.000000
14.835000	6.375000	50770.000000	1.000000
14.860000	6.350000	48820.000000	1.000000
14.885000	6.325000	50400.000000	1.000000
14.910000	6.300000	51180.000000	1.000000
14.935000	6.275000	50720.000000	1.000000
14.960000	6.250000	49660.000000	1.000000
14.985000	6.225000	50500.000000	1.000000
15.010000	6.200000	50000.000000	1.000000
15.035000	6.175000	49830.000000	1.000000
15.060000	6.150000	49390.000000	1.000000
15.085000	6.125000	50270.000000	1.000000
15.110000	6.100000	50180.000000	1.000000
15.135000	6.075000	49700.000000	1.000000
15.160000	6.050000	49620.000000	1.000000
15.185000	6.025000	47570.000000	1.000000
15.210000	6.000000	47410.000000	1.000000
15.235000	5.975000	46360.000000	1.000000
15.260000	5.950000	47200.000000	1.000000
15.285000	5.925000	46560.000000	1.000000
15.310000	5.900000	46400.000000	1.000000
15.335000	5.875000	46030.000000	1.000000
15.360000	5.850000	45790.000000	1.000000
15.385000	5.825000	46330.000000	1.000000
15.410000	5.800000	44880.000000	1.000000
15.435000	5.775000	44480.000000	1.000000
15.460000	5.750000	44800.000000	1.000000
15.485000	5.725000	45020.000000	1.000000
15.510000	5.700000	44090.000000	1.000000
15.535000	5.675000	44390.000000	1.000000
15.560000	5.650000	44040.000000	1.000000
15.585000	5.625000	42950.000000	1.000000
15.610000	5.600000	42350.000000	1.000000
15.635000	5.575000	42960.000000	1.000000
15.660000	5.550000	42700.000000	1.000000
15.685000	5.525000	42880.000000	1.000000
15.710000	5.500000	42950.000000	1.000000
15.735000	5.475000	42910.000000	1.000000
15.760000	5.450000	41980.000000	1.000000
15.785000	5.425000	40670.000000	1.000000
15.810000	5.400000	40530.000000	1.000000
15.835000	5.375000	40670.000000	1.000000
15.860000	5.350000	39590.000000	1.000000
15.885000	5.325000	40630.000000	1.000000
15.910000	5.300000	39720.000000	1.000000
15.935000	5.275000	39040.000000	1.000000
15.960000	5.250000	38940.000000	1.000000
15.985000	5.225000	38690.000000	1.000000
16.010000	5.200000	38260.000000	1.000000
16.035000	5.175000	38120.000000	1.000000
16.060000	5.150000	38050.000000	1.000000
16.085000	5.125000	37130.000000	1.000000
16.110000	5.100000	36950.000000	1.000000
16.135000	5.075000	36820.000000	1.000000
16.160000	5.050000	35650.000000	1.000000
16.185000	5.025000	35050.000000	1.000000
16.210000	5.000000	34350.000000	1.000000
16.235000	4.975000	34690.000000	1.000000
16.260000	4.950000	34810.000000	1.000000
16.285000	4.925000	34520.000000	1.000000
16.310000	4.900000	33900.000000	1.000000
16.335000	4.875000	33010.000000	1.000000
16.360000	4.850000	33140.000000	1.000000
16.385000	4.825000	32680.000000	1.000000
16.410000	4.800000	31930.000000	1.000000
16.435000	4.775000	31510.000000	1.000000
16.460000	4.750000	31850.000000	1.000000
16.485000	4.725000	31000.000000	1.000000
16.510000	4.700000	31230.000000	1.000000
16.535000	4.675000	31100.000000	1.000000
16.560000	4.650000	29990.000000	1.000000
16.585000	4.625000	28590.000000	1.000000
16.610000	4.600000	28830.000000	1.000000
16.635000	4.575000	29160.000000	1.000000
16.660000	4.550000	28220.000000	1.000000
16.685000	4.525000	27550.000000	1.000000
16.710000	4.500000	27550.000000	1.000000
16.735000	4.475000	27350.000000	1.000000
16.760000	4.450000	25950.000000	1.000000
16.785000	4.425000	25530.000000	1.000000
16.810000	4.400000	25990.000000	1.000000
16.835000	4.375000	25080.000000	1.000000
16.860000	4.350000	25370.000000	1.000000
16.885000	4.325000	23730.000000	1.000000
16.910000	4.300000	23670.000000	1.000000
16.935000	4.275000	23560.000000	1.000000
16.960000	4.250000	22370.000000	1.000000
16.985000	4.225000	22100.000000	1.000000
17.010000	4.200000	21080.000000	1.000000
17.035000	4.175000	20160.000000	1.000000
17.060000	4.150000	20000.000000	1.000000
17.085000	4.125000	19840.000000	1.000000
17.110000	4.100000	19460.000000	1.000000
17.135000	4.075000	18470.000000	1.000000
17.160000	4.050000	18290.000000	1.000000
17.185000	4.025000	18370.000000	1.000000
17.210000	4.000000	17360.000000	1.000000
17.235000	3.975000	16910.000000	1.000000
17.260000	3.950000	16480.000000	1.000000
17.285000	3.925000	15460.000000	1.000000
17.310000	3.900000	15750.000000	1.000000
17.335000	3.875000	15040.000000	1.000000
17.360000	3.850000	15150.000000	1.000000
17.385000	3.825000	14830.000000	1.000000
17.410000	3.800000	14410.000000	1.000000
17.435000	3.775000	13760.000000	1.000000
17.460000	3.750000	13330.000000	1.000000
17.485000	3.725000	13660.000000	1.000000
17.510000	3.700000	13440.000000	1.000000
17.535000	3.675000	12900.000000	1.000000
17.560000	3.650000	12720.000000	1.000000
17.585000	3.625000	12010.000000	1.000000
17.610000	3.600000	11600.000000	1.000000
17.635000	3.575000	11060.000000	1.000000
17.660000	3.550000	11100.000000	1.000000
17.685000	3.525000	10740.000000	1.000000
17.710000	3.500000	10640.000000	1.000000
17.735000	3.475000	10430.000000	1.000000
17.760000	3.450000	9870.000000	1.000000
17.785000	3.425000	10310.000000	1.000000
17.810000	3.400000	9850.000000	1.000000
17.835000	3.375000	9500.000000	1.000000
17.860000	3.350000	9230.000000	1.000000
17.885000	3.325000	9410.000000	1.000000
17.910000	3.300000	8980.000000	1.000000
17.935000	3.275000	8580.000000	1.000000
17.960000	3.250000	8780.000000	1.000000
17.985000	3.225000	8380.000000	1.000000
18.010000	3.200000	8250.000000	1.000000
18.035000	3.175000	8130.000000	1.000000
18.060000	3.150000	8050.000000	1.000000
18.085000	3.125000	8410.000000	1.000000
18.110000	3.100000	7760.000000	1.000000
18.135000	3.075000	7960.000000	1.000000
18.160000	3.050000	7620.000000	1.000000
18.185000	3.025000	7850.000000	1.000000
18.210000	3.000000	7390.000000	1.000000
18.235000	2.975000	7360.000000	1.000000
18.260000	2.950000	6770.000000	1.000000
18.285000	2.925000	7130.000000	1.000000
18.310000	2.900000	7150.000000	1.000000
18.335000	2.875000	6820.000000	1.000000
18.360000	2.850000	6740.000000	1.000000
18.385000	2.825000	6030.000000	1.000000
18.410000	2.800000	6320.000000	1.000000
18.435000	2.775000	6590.000000	1.000000
18.460000	2.750000	6570.000000	1.000000
18.485000	2.725000	6510.000000	1.000000
18.510000	2.700000	6280.000000	1.000000
18.535000	2.675000	5750.000000	1.000000
18.560000	2.650000	5760.000000	1.000000
18.585000	2.625000	5620.000000	1.000000
18.610000	2.600000	5520.000000	1.000000
18.635000	2.575000	5750.000000	1.000000
18.660000	2.550000	5170.000000	1.000000
18.685000	2.525000	4700.000000	1.000000
18.710000	2.500000	5000.000000	1.000000
18.735000	2.475000	4670.000000	1.000000
18.760000	2.450000	4280.000000	1.000000
18.785000	2.425000	4160.000000	1.000000
18.810000	2.400000	4030.000000	1.000000
18.835000	2.375000	3930.000000	1.000000
18.860000	2.350000	3790.000000	1.000000
18.885000	2.325000	3960.000000	1.000000
18.910000	2.300000	3460.000000	1.000000
18.935000	2.275000	3280.000000	1.000000
18.960000	2.250000	3410.000000	1.000000
18.985000	2.225000	3020.000000	1.000000
19.010000	2.200000	2850.000000	1.000000
19.035000	2.175000	3040.000000	1.000000
19.060000	2.150000	2800.000000	1.000000
19.085000	2.125000	3100.000000	1.000000
19.110000	2.100000	2980.000000	1.000000
19.135000	2.075000	2550.000000	1.000000
19.160000	2.050000	2730.000000	1.000000
19.185000	2.025000	2510.000000	1.000000
19.210000	2.000000	2580.000000	1.000000
19.235000	1.975000	2320.000000	1.000000
19.260000	1.950000	2640.000000	1.000000
19.285000	1.925000	2420.000000	1.000000
19.310000	1.900000	2140.000000	1.000000
19.335000	1.875000	2240.000000	1.000000
19.360000	1.850000	2140.000000	1.000000
19.385000	1.825000	2120.000000	1.000000
19.410000	1.800000	1880.000000	1.000000
19.435000	1.775000	1970.000000	1.000000
19.460000	1.750000	1820.000000	1.000000
19.485000	1.725000	1840.000000	1.000000
19.510000	1.700000	1860.000000	1.000000
19.535000	1.675000	1900.000000	1.000000
19.560000	1.650000	1890.000000	1.000000
19.585000	1.625000	1700.000000	1.000000
19.610000	1.600000	1750.000000	1.000000
19.635000	1.575000	1600.000000	1.000000
19.660000	1.550000	1720.000000	1.000000
19.685000	1.525000	1720.000000	1.000000
19.710000	1.500000	1460.000000	1.000000
19.735000	1.475000	1670.000000	1.000000
19.760000	1.450000	1570.000000	1.000000
19.785000	1.425000	1590.000000	1.000000
19.810000	1.400000	1430.000000	1.000000
19.835000	1.375000	1390.000000	1.000000
19.860000	1.350000	1390.000000	1.000000
19.885000	1.325000	1370.000000	1.000000
19.910000	1.300000	1420.000000	1.000000
19.935000	1.275000	1370.000000	1.000000
19.960000	1.250000	1360.000000	1.000000
19.985000	1.225000	1320.000000	1.000000
20.010000	1.200000	1260.000000	1.000000
20.035000	1.175000	1130.000000	1.000000
20.060000	1.150000	1360.000000	1.000000
20.085000	1.125000	1070.000000	1.000000
20.110000	1.100000	1100.000000	1.000000
20.135000	1.075000	1120.000000	1.000000
20.160000	1.050000	1080.000000	1.000000
20.185000	1.025000	1090.000000	1.000000
20.210000	1.000000	1010.000000	1.000000
20.235000	0.975000	990.000000	1.000000
20.260000	0.950000	820.000000	1.000000
20.285000	0.925000	750.000000	1.000000
20.310000	0.900000	890.000000	1.000000
20.335000	0.875000	740.000000	1.000000
20.360000	0.850000	870.000000	1.000000
20.385000	0.825000	710.000000	1.000000
20.410000	0.800000	620.000000	1.000000
20.435000	0.775000	840.000000	1.000000
20.460000	0.750000	740.000000	1.000000
20.485000	0.725000	670.000000	1.000000
20.510000	0.700000	610.000000	1.000000
20.535000	0.675000	600.000000	1.000000
20.560000	0.650000	630.000000	1.000000
20.585000	0.625000	620.000000	1.000000
20.610000	0.600000	720.000000	1.000000
20.635000	0.575000	710.000000	1.000000
20.660000	0.550000	580.000000	1.000000
20.685000	0.525000	660.000000	1.000000
20.710000	0.500000	650.000000	1.000000
20.735000	0.475000	450.000000	1.000000
20.760000	0.450000	570.000000	1.000000
20.785000	0.425000	530.000000	1.000000
20.810000	0.400000	450.000000	1.000000
20.835000	0.375000	440.000000	1.000000
20.860000	0.350000	540.000000	1.000000
20.885000	0.325000	490.000000	1.000000
20.910000	0.300000	520.000000	1.000000
20.935000	0.275000	460.000000	1.000000
20.960000	0.250000	440.000000	1.000000
20.985000	0.225000	450.000000	1.000000
21.010000	0.200000	310.000000	1.000000
21.035000	0.175000	340.000000	1.000000
21.060000	0.150000	260.000000	1.000000
21.085000	0.125000	380.000000	1.000000
21.110000	0.100000	480.000000	1.000000
21.135000	0.075000	310.000000	1.000000
21.160000	0.050000	320.000000	1.000000
21.185000	0.025000	320.000000	1.000000
21.210000	0.000000	210.000000	1.000000
21.235000	-0.025000	180.000000	1.000000
21.260000	-0.050000	180.000000	1.000000
21.285000	-0.075000	110.000000	1.000000
21.310000	-0.100000	90.000000	1.000000
21.335000	-0.125000	60.000000	1.000000
21.360000	-0.150000	100.000000	1.000000
21.385000	-0.175000	100.000000	1.000000
21.410000	-0.200000	30.000000	1.000000
21.435000	-0.225000	90.000000	1.000000
21.460000	-0.250000	110.000000	1.000000
21.485000	-0.275000	60.000000	1.000000
21.510000	-0.300000	120.000000	1.000000
21.535000	-0.325000	70.000000	1.000000
21.560000	-0.350000	70.000000	1.000000
21.585000	-0.375000	40.000000	1.000000
21.610000	-0.400000	30.000000	1.000000
21.635000	-0.425000	50.000000	1.000000
21.660000	-0.450000	60.000000	1.000000
21.685000	-0.475000	20.000000	1.000000
21.710000	-0.500000	30.000000	1.000000
21.735000	-0.525000	60.000000	1.000000
21.760000	-0.550000	40.000000	1.000000
21.785000	-0.575000	30.000000	1.000000
21.810000	-0.600000	50.000000	1.000000
21.835000	-0.625000	60.000000	1.000000
21.860000	-0.650000	70.000000	1.000000
21.885000	-0.675000	50.000000	1.000000
21.910000	-0.700000	30.000000	1.000000
21.935000	-0.725000	60.000000	1.000000
21.960000	-0.750000	40.000000	1.000000
21.985000	-0.775000	10.000000	1.000000
22.010000	-0.800000	70.000000	1.000000
22.035000	-0.825000	20.000000	1.000000
22.060000	-0.850000	50.000000	1.000000
22.085000	-0.875000	40.000000	1.000000
22.110000	-0.900000	40.000000	1.000000
22.135000	-0.925000	40.000000	1.000000
22.160000	-0.950000	60.000000	1.000000
22.185000	-0.975000	50.000000	1.000000
22.210000	-1.000000	30.000000	1.000000


